399;1
401;1
403;1
405;1
407;1
409;1
411;1
413;1
415;1
417;1
418;1
420;1
422;1
424;1
426;1
428;1
430;1
432;1
434;1
436;1
438;1
440;1
442;1
444;1
445;1
447;1
449;1
451;1
453;1
455;1
457;1
459;1
461;1
463;1
465;1
467;1
469;1
471;1
472;1
474;1
476;1
478;1
480;1
482;1
484;1
486;1
488;1
490;1
492;1
494;1
496;1
498;1
499;1
501;1
503;1
505;1
507;1
509;1
511;1
513;1
515;1
517;1
519;1
521;1
523;1
525;1
526;1
528;1
530;1
532;1
534;1
536;1
538;1
540;1
542;1
544;1
546;1
548;1
550;1
552;1
553;1
555;1
557;1
559;1
561;1
563;1
565;1
567;1
569;1
571;1
573;1
575;1
577;1
579;1
580;1
582;1
584;1
586;1
588;1
590;1
592;1
594;1
596;1
598;1
600;1
602;1
604;1
606;1
607;1
609;1
611;1
613;1
615;1
617;1
619;1
621;1
623;1
625;1
627;1
629;1
631;1
633;1
634;1
636;1
638;1
640;1
642;1
644;1
646;1
648;1
650;1
652;1
654;1
656;1
658;1
660;1
661;1
663;1
665;1
667;1
669;1
671;1
673;1
675;1
677;1
679;1
681;1
683;1
685;1
687;1
688;1
690;1
692;1
694;1
696;1
698;1
700;1
702;1
704;1
706;1
708;1
710;1
712;1
714;1
715;1
717;1
719;1
721;1
723;1
725;1
727;1
729;1
731;1
733;1
735;1
737;1
739;1
741;1
742;1
744;1
746;1
748;1
750;1
752;1
754;1
756;1
758;1
760;1
762;1
764;1
766;1
768;1
769;1
771;1
773;1
775;1
777;1
779;1
781;1
783;1
785;1
787;1
789;1
791;1
793;1
795;1
796;1
798;1
800;1
802;1
804;1
806;1
808;1
810;1
812;1
814;1
816;1
818;1
820;1
822;1
823;1
825;1
827;1
829;1
831;1
833;1
835;1
837;1
839;1
841;1
843;1
845;1
847;1
849;1
850;1
852;1
854;1
856;1
858;1
860;1
862;1
864;1
866;1
868;1
870;1
872;1
874;1
876;1
877;1
879;1
881;1
883;1
885;1
887;1
889;1
891;1
893;1
895;1
897;1
899;1
901;1
903;1
904;1
906;1
908;1
910;1
912;1
914;1
916;1
918;1
920;1
922;1
924;1
926;1
928;1
930;1
931;1
933;1
935;1
937;1
939;1
941;1
943;1
945;1
947;1
949;1
951;1
953;1
955;1
957;1
958;1
960;1
962;1
964;1
966;1
968;1
970;1
972;1
974;1
976;1
978;1
980;1
982;1
984;1
985;1
987;1
989;1
991;1
993;1
995;1
997;1
999;1
1000;1
1000;1
1000;1
1010;1
1010;1
1010;1
1010;1
1010;1
1020;1
1020;1
1020;1
1020;1
1020;1
1030;1
1030;1
1030;1
1030;1
1030;1
1040;1
1040;1
1040;1
1040;1
1040;1
1050;1
1050;1
1050;1
1050;1
1050;1
1050;1
1060;1
1060;1
1060;1
1060;1
1060;1
1070;1
1070;1
1070;1
1070;1
1070;1
1080;1
1080;1
1080;1
1080;1
1080;1
1090;1
1090;1
1090;1
1090;1
1090;1
1100;1
1100;1
1100;1
1100;1
1100;1
1110;1
1110;1
1110;1
1110;1
1110;1
1110;1
1120;1
1120;1
1120;1
1120;1
1120;1
1130;1
1130;1
1130;1
1130;1
1130;1
1140;1
1140;1
1140;1
1140;1
1140;1
1150;1
1150;1
1150;1
1150;1
1150;1
1160;1
1160;1
1160;1
1160;1
1160;1
1160;1
1170;1
1170;1
1170;1
1170;1
1170;1
1180;1
1180;1
1180;1
1180;1
1180;1
1190;1
1190;1
1190;1
1190;1
1190;1
1200;1
1200;1
1200;1
1200;1
1200;1
1210;1
1210;1
1210;1
1210;1
1210;1
1210;1
1220;1
1220;1
1220;1
1220;1
1220;1
1230;1
1230;1
1230;1
1230;1
1230;1
1240;1
1240;1
1240;1
1240;1
1240;1
1250;1
1250;1
1250;1
1250;1
1250;1
1260;1
1260;1
1260;1
1260;1
1260;1
1270;1
1270;1
1270;1
1270;1
1270;1
1270;1
1280;1
1280;1
1280;1
1280;1
1280;1
1290;1
1290;1
1290;1
1290;1
1290;1
1300;1
1300;1
1300;1
1300;1
1300;1
1310;1
1310;1
1310;1
1310;1
1310;1
1320;1
1320;1
1320;1
1320;1
1320;1
1320;1
1330;1
1330;1
1330;1
1330;1
1330;1
1340;1
1340;1
1340;1
1340;1
1340;1
1350;1
1350;1
1350;1
1350;1
1350;1
1360;1
1360;1
1360;1
1360;1
1360;1
1370;1
1370;1
1370;1
1370;1
1370;1
1380;1
1380;1
1380;1
1380;1
1380;1
1380;1
1390;1
1390;1
1390;1
1390;1
1390;1
1400;1
1400;1
1400;1
1400;1
1400;1
1410;1
1410;1
1410;1
1410;1
1410;1
1420;1
1420;1
1420;1
1420;1
1420;1
1430;1
1430;1
1430;1
1430;1
1430;1
1430;1
1440;1
1440;1
1440;1
1440;1
1440;1
1450;1
1450;1
1450;1
1450;1
1450;1
1460;1
1460;1
1460;1
1460;1
1460;1
1470;1
1470;1
1470;1
1470;1
1470;1
1480;1
1480;1
1480;1
1480;1
1480;1
1480;1
1490;1
1490;1
1490;1
1490;1
1490;1
1500;1
1500;1
1500;1
1500;1
1500;1
1510;1
1510;1
1510;1
1510;1
1510;1
1520;1
1520;1
1520;1
1520;1
1520;1
1530;1
1530;1
1530;1
1530;1
1530;1
1540;1
1540;1
1540;1
1540;1
1540;1
1540;1
1550;1
1550;1
1550;1
1550;1
1550;1
1560;1
1560;1
1560;1
1560;1
1560;1
1570;1
1570;1
1570;1
1570;1
1570;1
1580;1
1580;1
1580;1
1580;1
1580;1
1590;1
1590;1
1590;1
1590;1
1590;1
1590;1
1600;1
1600;1
1600;1
1600;1
1600;1
1610;1
1610;1
1610;1
1610;1
1610;1
1620;1
1620;1
1620;1
1620;1
1620;1
1630;1
1630;1
1630;1
1630;1
1630;1
1640;1
1640;1
1640;1
1640;1
1640;1
1650;1
1650;1
1650;1
1650;1
1650;1
1650;1
1660;1
1660;1
1660;1
1660;1
1660;1
1670;1
1670;1
1670;1
1670;1
1670;1
1680;1
1680;1
1680;1
1680;1
1680;1
1690;1
1690;1
1690;1
1690;1
1690;1
1700;1
1700;1
1700;1
1700;1
1700;1
1700;1
1710;1
1710;1
1710;1
1710;1
1710;1
1720;1
1720;1
1720;1
1720;1
1720;1
1730;1
1730;1
1730;1
1730;1
1730;1
1740;1
1740;1
1740;1
1740;1
1740;1
1750;1
1750;1
1750;1
1750;1
1750;1
1750;1
1760;1
1760;1
1760;1
1760;1
1760;1
1770;1
1770;1
1770;1
1770;1
1770;1
1780;1
1780;1
1780;1
1780;1
1780;1
1790;1
1790;1
1790;1
1790;1
1790;1
1800;1
1800;1
1800;1
1800;1
1800;1
1810;1
1810;1
1810;1
1810;1
1810;1
1810;1
1820;1
1820;1
1820;1
1820;1
1820;1
1830;1
1830;1
1830;1
1830;1
1830;1
1840;1
1840;1
1840;1
1840;1
1840;1
1850;1
1850;1
1850;1
1850;1
1850;1
1860;1
1860;1
1860;1
1860;1
1860;1
1860;1
1870;1
1870;1
1870;1
1870;1
1870;1
1880;1
1880;1
1880;1
1880;1
1880;1
1890;1
1890;1
1890;1
1890;1
1890;1
1900;1
1900;1
1900;1
1900;1
1900;1
1910;1
1910;1
1910;1
1910;1
1910;1
1910;1
1920;1
1920;1
1920;1
1920;1
1920;1
1930;1
1930;1
1930;1
1930;1
1930;1
1940;1
1940;1
1940;1
1940;1
1940;1
1950;1
1950;1
1950;1
1950;1
1950;1
1960;1
1960;1
1960;1
1960;1
1960;1
1970;1
1970;1
1970;1
1970;1
1970;1
1970;1
1980;1
1980;1
1980;1
1980;1
1980;1
1990;1
1990;1
1990;1
1990;1
1990;1
2000;1
2000;1
2000;1
2000;1
2000;1
2010;1
2010;1
2010;1
2010;1
2010;1
2020;1
2020;1
2020;1
2020;1
2020;1
2020;1
2030;1
2030;1
2030;1
2030;1
2030;1
2040;1
2040;1
2040;1
2040;1
2040;1
2050;1
2050;1
2050;1
2050;1
2050;1
2060;1
2060;1
2060;1
2060;1
2060;1
2070;1
2070;1
2070;1
2070;1
2070;1
2080;1
2080;1
2080;1
2080;1
2080;1
2080;1
2090;1
2090;1
2090;1
2090;1
2090;1
2100;1
2100;1
2100;1
2100;1
2100;1
2110;1
2110;1
2110;1
2110;1
2110;1
2120;1
2120;1
2120;1
2120;1
2120;1
2130;1
2130;1
2130;1
2130;1
2130;1
2130;1
2140;1
2140;1
2140;1
2140;1
2140;1
2150;1
2150;1
2150;1
2150;1
2150;1
2160;1
2160;1
2160;1
2160;1
2160;1
2170;1
2170;1
2170;1
2170;1
2170;1
2180;1
2180;1
2180;1
2180;1
2180;1
2180;1
2190;1
2190;1
2190;1
2190;1
2190;1
2200;1
2200;1
2200;1
2200;1
2200;1
2210;1
2210;1
2210;1
2210;1
2210;1
2220;1
2220;1
2220;1
2220;1
2220;1
2230;1
2230;1
2230;1
2230;1
2230;1
2240;1
2240;1
2240;1
2240;1
2240;1
2240;1
2250;1
2250;1
2250;1
2250;1
2250;1
2260;1
2260;1
2260;1
2260;1
2260;1
2270;1
2270;1
2270;1
2270;1
2270;1
2280;1
2280;1
2280;1
2280;1
2280;1
2290;1
2290;1
2290;1
2290;1
2290;1
2290;1
2300;1
2300;1
2300;1
2300;1
2300;1
2310;1
2310;1
2310;1
2310;1
2310;1
2320;1
2320;1
2320;1
2320;1
2320;1
2330;1
2330;1
2330;1
2330;1
2330;1
2340;1
2340;1
2340;1
2340;1
2340;1
2350;1
2350;1
2350;1
2350;1
2350;1
2350;1
2360;1
2360;1
2360;1
2360;1
2360;1
2370;1
2370;1
2370;1
2370;1
2370;1
2380;1
2380;1
2380;1
2380;1
2380;1
2390;1
2390;1
2390;1
2390;1
2390;1
2400;1
2400;1
2400;1
2400;1
2400;1
2400;1
2410;1
2410;1
2410;1
2410;1
2410;1
2420;1
2420;1
2420;1
2420;1
2420;1
2430;1
2430;1
2430;1
2430;1
2430;1
2440;1
2440;1
2440;1
2440;1
2440;1
2450;1
2450;1
2450;1
2450;1
2450;1
2450;1
2460;1
2460;1
2460;1
2460;1
2460;1
2470;1
2470;1
2470;1
2470;1
2470;1
2480;1
2480;1
2480;1
2480;1
2480;1
2490;1
2490;1
2490;1
2490;1
2490;1
2500;1
2500;1
2500;1
2500;1
2500;1
2510;1
2510;1
2510;1
2510;1
2510;1
2510;1
2520;1
2520;1
2520;1
2520;1
2520;1
2530;1
2530;1
2530;1
2530;1
2530;1
2540;1
2540;1
2540;1
2540;1
2540;1
2550;1
2550;1
2550;1
2550;1
2550;1
2560;1
2560;1
2560;1
2560;1
2560;1
2560;1
2570;1
2570;1
2570;1
2570;1
2570;1
2580;1
2580;1
2580;1
2580;1
2580;1
2590;1
2590;1
2590;1
2590;1
2590;1
2600;1
2600;1
2600;1
2600;1
2600;1
2610;1
2610;1
2610;1
2610;1
2610;1
2620;1
2620;1
2620;1
2620;1
2620;1
2620;1
2630;1
2630;1
2630;1
2630;1
2630;1
2640;1
2640;1
2640;1
2640;1
2640;1
2650;1
2650;1
2650;1
2650;1
2650;1
2660;1
2660;1
2660;1
2660;1
2660;1
2670;1
2670;1
2670;1
2670;1
2670;1
2670;1
2680;1
2680;1
2680;1
2680;1
2680;1
2690;1
2690;1
2690;1
2690;1
2690;1
2700;1
2700;1
2700;1
2700;1
2700;1
2710;1
2710;1
2710;1
2710;1
2710;1
2720;1
2720;1
2720;1
2720;1
2720;1
2720;1
2730;1
2730;1
2730;1
2730;1
2730;1
2740;1
2740;1
2740;1
2740;1
2740;1
2750;1
2750;1
2750;1
2750;1
2750;1
2760;1
2760;1
2760;1
2760;1
2760;1
2770;1
2770;1
2770;1
2770;1
2770;1
2780;1
2780;1
2780;1
2780;1
2780;1
2780;1
2790;1
2790;1
2790;1
2790;1
2790;1
2800;1
2800;1
2800;1
2800;1
2800;1
2810;1
2810;1
2810;1
2810;1
2810;1
2820;1
2820;1
2820;1
2820;1
2820;1
2830;1
2830;1
2830;1
2830;1
2830;1
2830;1
2840;1
2840;1
2840;1
2840;1
2840;1
2850;1
2850;1
2850;1
2850;1
2850;1
2860;1
2860;1
2860;1
2860;1
2860;1
2870;1
2870;1
2870;1
2870;1
2870;1
2880;1
2880;1
2880;1
2880;1
2880;1
2890;1
2890;1
2890;1
2890;1
2890;1
2890;1
2900;1
2900;1
2900;1
2900;1
2900;1
2910;1
2910;1
2910;1
2910;1
2910;1
2920;1
2920;1
2920;1
2920;1
2920;1
2930;1
2930;1
2930;1
2930;1
2930;1
2940;1
2940;1
2940;1
2940;1
2940;1
2940;1
2950;1
2950;1
2950;1
2950;1
2950;1
2960;1
2960;1
2960;1
2960;1
2960;1
2970;1
2970;1
2970;1
2970;1
2970;1
2980;1
2980;1
2980;1
2980;1
2980;1
2990;1
2990;1
2990;1
2990;1
2990;1
2990;1
3000;1
3000;1
3000;1
3000;1
3000;1
3010;1
3010;1
3010;1
3010;1
3010;1
3020;1
3020;1
3020;1
3020;1
3020;1
3030;1
3030;1
3030;1
3030;1
3030;1
3040;1
3040;1
3040;1
3040;1
3040;1
3050;1
3050;1
3050;1
3050;1
3050;1
3050;1
3060;1
3060;1
3060;1
3060;1
3060;1
3070;1
3070;1
3070;1
3070;1
3070;1
3080;1
3080;1
3080;1
3080;1
3080;1
3090;1
3090;1
3090;1
3090;1
3090;1
3100;1
3100;1
3100;1
3100;1
3100;1
3100;1
3110;1
3110;1
3110;1
3110;1
3110;1
3120;1
3120;1
3120;1
3120;1
3120;1
3130;1
3130;1
3130;1
3130;1
3130;1
3140;1
3140;1
3140;1
3140;1
3140;1
3150;1
3150;1
3150;1
3150;1
3150;1
3160;1
3160;1
3160;1
3160;1
3160;1
3160;1
3170;1
3170;1
3170;1
3170;1
3170;1
3180;1
3180;1
3180;1
3180;1
3180;1
3190;1
3190;1
3190;1
3190;1
3190;1
3200;1
3200;1
3200;1
3200;1
3200;1
3210;1
3210;1
3210;1
3210;1
3210;1
3210;1
3220;1
3220;1
3220;1
3220;1
3220;1
3230;1
3230;1
3230;1
3230;1
3230;1
3240;1
3240;1
3240;1
3240;1
3240;1
3250;1
3250;1
3250;1
3250;1
3250;1
3260;1
3260;1
3260;1
3260;1
3260;1
3260;1
3270;1
3270;1
3270;1
3270;1
3270;1
3280;1
3280;1
3280;1
3280;1
3280;1
3290;1
3290;1
3290;1
3290;1
3290;1
3300;1
3300;1
3300;1
3300;1
3300;1
3310;1
3310;1
3310;1
3310;1
3310;1
3320;1
3320;1
3320;1
3320;1
3320;1
3320;1
3330;1
3330;1
3330;1
3330;1
3330;1
3340;1
3340;1
3340;1
3340;1
3340;1
3350;1
3350;1
3350;1
3350;1
3350;1
3360;1
3360;1
3360;1
3360;1
3360;1
3370;1
3370;1
3370;1
3370;1
3370;1
3370;1
3380;1
3380;1
3380;1
3380;1
3380;1
3390;1
3390;1
3390;1
3390;1
3390;1
3400;1
3400;1
3400;1
3400;1
3400;1
3410;1
3410;1
3410;1
3410;1
3410;1
3420;1
3420;1
3420;1
3420;1
3420;1
3430;1
3430;1
3430;1
3430;1
3430;1
3430;1
3440;1
3440;1
3440;1
3440;1
3440;1
3450;1
3450;1
3450;1
3450;1
3450;1
3460;1
3460;1
3460;1
3460;1
3460;1
3470;1
3470;1
3470;1
3470;1
3470;1
3480;1
3480;1
3480;1
3480;1
3480;1
3480;1
3490;1
3490;1
3490;1
3490;1
3490;1
3500;1
3500;1
3500;1
3500;1
3500;1
3510;1
3510;1
3510;1
3510;1
3510;1
3520;1
3520;1
3520;1
3520;1
3520;1
3530;1
3530;1
3530;1
3530;1
3530;1
3530;1
3540;1
3540;1
3540;1
3540;1
3540;1
3550;1
3550;1
3550;1
3550;1
3550;1
3560;1
3560;1
3560;1
3560;1
3560;1
3570;1
3570;1
3570;1
3570;1
3570;1
3580;1
3580;1
3580;1
3580;1
3580;1
3590;1
3590;1
3590;1
3590;1
3590;1
3590;1
3600;1
3600;1
3600;1
3600;1
3600;1
3610;1
3610;1
3610;1
3610;1
3610;1
3620;1
3620;1
3620;1
3620;1
3620;1
3630;1
3630;1
3630;1
3630;1
3630;1
3640;1
3640;1
3640;1
3640;1
3640;1
3640;1
3650;1
3650;1
3650;1
3650;1
3650;1
3660;1
3660;1
3660;1
3660;1
3660;1
3670;1
3670;1
3670;1
3670;1
3670;1
3680;1
3680;1
3680;1
3680;1
3680;1
3690;1
3690;1
3690;1
3690;1
3690;1
3700;1
3700;1
3700;1
3700;1
3700;1
3700;1
3710;1
3710;1
3710;1
3710;1
3710;1
3720;1
3720;1
3720;1
3720;1
3720;1
3730;1
3730;1
3730;1
3730;1
3730;1
3740;1
3740;1
3740;1
3740;1
3740;1
3750;1
3750;1
3750;1
3750;1
3750;1
3750;1
3760;1
3760;1
3760;1
3760;1
3760;1
3770;1
3770;1
3770;1
3770;1
3770;1
3780;1
3780;1
3780;1
3780;1
3780;1
3790;1
3790;1
3790;1
3790;1
3790;1
3800;1
3800;1
3800;1
3800;1
3800;1
3800;1
3810;1
3810;1
3810;1
3810;1
3810;1
3820;1
3820;1
3820;1
3820;1
3820;1
3830;1
3830;1
3830;1
3830;1
3830;1
3840;1
3840;1
3840;1
3840;1
3840;1
3850;1
3850;1
3850;1
3850;1
3850;1
3860;1
3860;1
3860;1
3860;1
3860;1
3860;1
3870;1
3870;1
3870;1
3870;1
3870;1
3880;1
3880;1
3880;1
3880;1
3880;1
3890;1
3890;1
3890;1
3890;1
3890;1
3900;1
3900;1
3900;1
3900;1
3900;1
3910;1
3910;1
3910;1
3910;1
3910;1
3910;1
3920;1
3920;1
3920;1
3920;1
3920;1
3930;1
3930;1
3930;1
3930;1
3930;1
3940;1
3940;1
3940;1
3940;1
3940;1
3950;1
3950;1
3950;1
3950;1
3950;1
3960;1
3960;1
3960;1
3960;1
3960;1
3960;1
3970;1
3970;1
3970;1
3970;1
3970;1
3980;1
3980;1
3980;1
3980;1
3980;1
3990;1
3990;1
3990;1
3990;1
3990;1
4000;1
4000;1
4000;1
4000;1
