3.991989e+002;5.260934e+001
4.011274e+002;5.266182e+001
4.030559e+002;5.252972e+001
4.049844e+002;5.292266e+001
4.069129e+002;5.263840e+001
4.088414e+002;5.235203e+001
4.107699e+002;5.289284e+001
4.126984e+002;5.330426e+001
4.146269e+002;5.295640e+001
4.165554e+002;5.290025e+001
4.184839e+002;5.300483e+001
4.204124e+002;5.309636e+001
4.223409e+002;5.304016e+001
4.242694e+002;5.275579e+001
4.261979e+002;5.271783e+001
4.281264e+002;5.288154e+001
4.300549e+002;5.290059e+001
4.319834e+002;5.279178e+001
4.339119e+002;5.277499e+001
4.358404e+002;5.293154e+001
4.377689e+002;5.283193e+001
4.396974e+002;5.284585e+001
4.416259e+002;5.289329e+001
4.435544e+002;5.284019e+001
4.454829e+002;5.269846e+001
4.474114e+002;5.261828e+001
4.493399e+002;5.269994e+001
4.512684e+002;5.255363e+001
4.531969e+002;5.243425e+001
4.551254e+002;5.239007e+001
4.570539e+002;5.228406e+001
4.589824e+002;5.216238e+001
4.609109e+002;5.213448e+001
4.628394e+002;5.213718e+001
4.647679e+002;5.202834e+001
4.666964e+002;5.177538e+001
4.686248e+002;5.164226e+001
4.705533e+002;5.165997e+001
4.724818e+002;5.150374e+001
4.744103e+002;5.132484e+001
4.763388e+002;5.124230e+001
4.782673e+002;5.104261e+001
4.801958e+002;5.079616e+001
4.821243e+002;5.057377e+001
4.840528e+002;5.042085e+001
4.859813e+002;5.023759e+001
4.879098e+002;5.006217e+001
4.898383e+002;4.998800e+001
4.917668e+002;4.996092e+001
4.936953e+002;4.988295e+001
4.956238e+002;4.974583e+001
4.975523e+002;4.962981e+001
4.994808e+002;4.955159e+001
5.014093e+002;4.933297e+001
5.033378e+002;4.905831e+001
5.052663e+002;4.881335e+001
5.071948e+002;4.853654e+001
5.091233e+002;4.806741e+001
5.110518e+002;4.743218e+001
5.129803e+002;4.683450e+001
5.149088e+002;4.692765e+001
5.168373e+002;4.762069e+001
5.187657e+002;4.821440e+001
5.206943e+002;4.851399e+001
5.226227e+002;4.863251e+001
5.245513e+002;4.863465e+001
5.264797e+002;4.865483e+001
5.284083e+002;4.863253e+001
5.303367e+002;4.861680e+001
5.322653e+002;4.854922e+001
5.341937e+002;4.845675e+001
5.361223e+002;4.836160e+001
5.380507e+002;4.820314e+001
5.399792e+002;4.801409e+001
5.419077e+002;4.787246e+001
5.438362e+002;4.770303e+001
5.457647e+002;4.751255e+001
5.476932e+002;4.735825e+001
5.496217e+002;4.718556e+001
5.515502e+002;4.696600e+001
5.534787e+002;4.673653e+001
5.554072e+002;4.652379e+001
5.573357e+002;4.635558e+001
5.592642e+002;4.614900e+001
5.611927e+002;4.592555e+001
5.631212e+002;4.572765e+001
5.650497e+002;4.553493e+001
5.669782e+002;4.535138e+001
5.689067e+002;4.543065e+001
5.708352e+002;4.576236e+001
5.727637e+002;4.597902e+001
5.746922e+002;4.600056e+001
5.766207e+002;4.592053e+001
5.785492e+002;4.574794e+001
5.804777e+002;4.545745e+001
5.824062e+002;4.511059e+001
5.843347e+002;4.473789e+001
5.862632e+002;4.422308e+001
5.881917e+002;4.361508e+001
5.901202e+002;4.285560e+001
5.920486e+002;4.194585e+001
5.939772e+002;4.087492e+001
5.959056e+002;3.964925e+001
5.978342e+002;3.823556e+001
5.997626e+002;3.652400e+001
6.016912e+002;3.458387e+001
6.036196e+002;3.305978e+001
6.055482e+002;3.192373e+001
6.074766e+002;3.082939e+001
6.094052e+002;2.994130e+001
6.113336e+002;2.980033e+001
6.132621e+002;3.030986e+001
6.151906e+002;3.062573e+001
6.171191e+002;3.068818e+001
6.190476e+002;3.074406e+001
6.209761e+002;3.096650e+001
6.229046e+002;3.213029e+001
6.248331e+002;3.470458e+001
6.267616e+002;3.803333e+001
6.286901e+002;4.137531e+001
6.306186e+002;4.375343e+001
6.325471e+002;4.480614e+001
6.344756e+002;4.511712e+001
6.364041e+002;4.522058e+001
6.383326e+002;4.528075e+001
6.402611e+002;4.533370e+001
6.421896e+002;4.544640e+001
6.441181e+002;4.560298e+001
6.460466e+002;4.571861e+001
6.479751e+002;4.581216e+001
6.499036e+002;4.589177e+001
6.518321e+002;4.597950e+001
6.537606e+002;4.607595e+001
6.556891e+002;4.618255e+001
6.576176e+002;4.631818e+001
6.595461e+002;4.645992e+001
6.614745e+002;4.659480e+001
6.634031e+002;4.672379e+001
6.653315e+002;4.686257e+001
6.672601e+002;4.701904e+001
6.691885e+002;4.716911e+001
6.711171e+002;4.732951e+001
6.730455e+002;4.749670e+001
6.749741e+002;4.765313e+001
6.769025e+002;4.778964e+001
6.788311e+002;4.791242e+001
6.807595e+002;4.803022e+001
6.826880e+002;4.816284e+001
6.846165e+002;4.829223e+001
6.865450e+002;4.840993e+001
6.884735e+002;4.853184e+001
6.904020e+002;4.867527e+001
6.923305e+002;4.884366e+001
6.942590e+002;4.904059e+001
6.961875e+002;4.927490e+001
6.981160e+002;4.952251e+001
7.000445e+002;4.971539e+001
7.019730e+002;4.980032e+001
7.039015e+002;4.979620e+001
7.058300e+002;4.972848e+001
7.077585e+002;4.959431e+001
7.096870e+002;4.936622e+001
7.116155e+002;4.901245e+001
7.135440e+002;4.851720e+001
7.154725e+002;4.796934e+001
7.174010e+002;4.751205e+001
7.193295e+002;4.717511e+001
7.212580e+002;4.686314e+001
7.231865e+002;4.657361e+001
7.251150e+002;4.630594e+001
7.270435e+002;4.605308e+001
7.289720e+002;4.581011e+001
7.309005e+002;4.555505e+001
7.328290e+002;4.529660e+001
7.347574e+002;4.506808e+001
7.366860e+002;4.487074e+001
7.386144e+002;4.478510e+001
7.405430e+002;4.492444e+001
7.424714e+002;4.525162e+001
7.444000e+002;4.560171e+001
7.463284e+002;4.587130e+001
7.482570e+002;4.606717e+001
7.501854e+002;4.623555e+001
7.521140e+002;4.638791e+001
7.540424e+002;4.650676e+001
7.559709e+002;4.659559e+001
7.578994e+002;4.668483e+001
7.598279e+002;4.675146e+001
7.617564e+002;4.679765e+001
7.636849e+002;4.685112e+001
7.656134e+002;4.690572e+001
7.675419e+002;4.696154e+001
7.694704e+002;4.700032e+001
7.713989e+002;4.702656e+001
7.733274e+002;4.704298e+001
7.752559e+002;4.706141e+001
7.771844e+002;4.709401e+001
7.791129e+002;4.713224e+001
7.810414e+002;4.716659e+001
7.829699e+002;4.719594e+001
7.848984e+002;4.721542e+001
7.868269e+002;4.722735e+001
7.887554e+002;4.723997e+001
7.906839e+002;4.726848e+001
7.926124e+002;4.734118e+001
7.945409e+002;4.747020e+001
7.964694e+002;4.768906e+001
7.983979e+002;4.798701e+001
8.003264e+002;4.812419e+001
8.022549e+002;4.799544e+001
8.041833e+002;4.777575e+001
8.061119e+002;4.755172e+001
8.080403e+002;4.736878e+001
8.099689e+002;4.721823e+001
8.118973e+002;4.707784e+001
8.138259e+002;4.693099e+001
8.157543e+002;4.680960e+001
8.176829e+002;4.676119e+001
8.196113e+002;4.680043e+001
8.215399e+002;4.689507e+001
8.234683e+002;4.703444e+001
8.253969e+002;4.720451e+001
8.273253e+002;4.741513e+001
8.292538e+002;4.765811e+001
8.311823e+002;4.789399e+001
8.331108e+002;4.808380e+001
8.350393e+002;4.820361e+001
8.369678e+002;4.824360e+001
8.388963e+002;4.821689e+001
8.408248e+002;4.814283e+001
8.427533e+002;4.803076e+001
8.446818e+002;4.791569e+001
8.466103e+002;4.783641e+001
8.485388e+002;4.777130e+001
8.504673e+002;4.769270e+001
8.523958e+002;4.758903e+001
8.543243e+002;4.746378e+001
8.562528e+002;4.730177e+001
8.581813e+002;4.712400e+001
8.601098e+002;4.692432e+001
8.620383e+002;4.670492e+001
8.639668e+002;4.651583e+001
8.658953e+002;4.637210e+001
8.678238e+002;4.624028e+001
8.697523e+002;4.611618e+001
8.716808e+002;4.599750e+001
8.736093e+002;4.589612e+001
8.755378e+002;4.580477e+001
8.774662e+002;4.571006e+001
8.793948e+002;4.561442e+001
8.813232e+002;4.553276e+001
8.832518e+002;4.547769e+001
8.851802e+002;4.544661e+001
8.871088e+002;4.543856e+001
8.890372e+002;4.544286e+001
8.909658e+002;4.546831e+001
8.928942e+002;4.549760e+001
8.948227e+002;4.553407e+001
8.967512e+002;4.558368e+001
8.986797e+002;4.564619e+001
9.006082e+002;4.573085e+001
9.025367e+002;4.582170e+001
9.044652e+002;4.591607e+001
9.063937e+002;4.601940e+001
9.083222e+002;4.613231e+001
9.102507e+002;4.626012e+001
9.121792e+002;4.642833e+001
9.141077e+002;4.661730e+001
9.160362e+002;4.678715e+001
9.179647e+002;4.692551e+001
9.198932e+002;4.703933e+001
9.218217e+002;4.713329e+001
9.237502e+002;4.722319e+001
9.256786e+002;4.731301e+001
9.276072e+002;4.739771e+001
9.295356e+002;4.747885e+001
9.314642e+002;4.755410e+001
9.333926e+002;4.761341e+001
9.353212e+002;4.765390e+001
9.372496e+002;4.768966e+001
9.391782e+002;4.773039e+001
9.411066e+002;4.775606e+001
9.430352e+002;4.776563e+001
9.449636e+002;4.774606e+001
9.468922e+002;4.769928e+001
9.488206e+002;4.764724e+001
9.507491e+002;4.759802e+001
9.526776e+002;4.755782e+001
9.546061e+002;4.752840e+001
9.565346e+002;4.750311e+001
9.584631e+002;4.748383e+001
9.603916e+002;4.746495e+001
9.623201e+002;4.745065e+001
9.642486e+002;4.745173e+001
9.661771e+002;4.747361e+001
9.681056e+002;4.750883e+001
9.700341e+002;4.754885e+001
9.719626e+002;4.759644e+001
9.738911e+002;4.764735e+001
9.758196e+002;4.770773e+001
9.777481e+002;4.777779e+001
9.796766e+002;4.786143e+001
9.816051e+002;4.795810e+001
9.835336e+002;4.806422e+001
9.854621e+002;4.816913e+001
9.873906e+002;4.826734e+001
9.893191e+002;4.836159e+001
9.912476e+002;4.845785e+001
9.931761e+002;4.855364e+001
9.951046e+002;4.864509e+001
9.970331e+002;4.873069e+001
9.989615e+002;4.880272e+001
1.000890e+003;4.886304e+001
1.002819e+003;4.891735e+001
1.004747e+003;4.896821e+001
1.006676e+003;4.902762e+001
1.008604e+003;4.908482e+001
1.010533e+003;4.912795e+001
1.012461e+003;4.916472e+001
1.014390e+003;4.920489e+001
1.016318e+003;4.925174e+001
1.018247e+003;4.930147e+001
1.020175e+003;4.934959e+001
1.022104e+003;4.939519e+001
1.024032e+003;4.943053e+001
1.025961e+003;4.945136e+001
1.027889e+003;4.946458e+001
1.029818e+003;4.947983e+001
1.031746e+003;4.949330e+001
1.033675e+003;4.951110e+001
1.035603e+003;4.953133e+001
1.037531e+003;4.953637e+001
1.039460e+003;4.952227e+001
1.041389e+003;4.949906e+001
1.043317e+003;4.946693e+001
1.045245e+003;4.944042e+001
1.047174e+003;4.941534e+001
1.049103e+003;4.938148e+001
1.051031e+003;4.934040e+001
1.052959e+003;4.929036e+001
1.054888e+003;4.922761e+001
1.056817e+003;4.916222e+001
1.058745e+003;4.909272e+001
1.060673e+003;4.901874e+001
1.062602e+003;4.894085e+001
1.064531e+003;4.885114e+001
1.066459e+003;4.873407e+001
1.068387e+003;4.859290e+001
1.070316e+003;4.842921e+001
1.072245e+003;4.824176e+001
1.074173e+003;4.802515e+001
1.076101e+003;4.776683e+001
1.078030e+003;4.745675e+001
1.079958e+003;4.709406e+001
1.081887e+003;4.666915e+001
1.083815e+003;4.618566e+001
1.085744e+003;4.564706e+001
1.087672e+003;4.504285e+001
1.089601e+003;4.438116e+001
1.091529e+003;4.367287e+001
1.093458e+003;4.293258e+001
1.095386e+003;4.219778e+001
1.097315e+003;4.150311e+001
1.099243e+003;4.088108e+001
1.101172e+003;4.036250e+001
1.103100e+003;3.996574e+001
1.105029e+003;3.969837e+001
1.106957e+003;3.957162e+001
1.108886e+003;3.958004e+001
1.110814e+003;3.972165e+001
1.112743e+003;3.999852e+001
1.114671e+003;4.040417e+001
1.116600e+003;4.092685e+001
1.118528e+003;4.154991e+001
1.120457e+003;4.224037e+001
1.122385e+003;4.298031e+001
1.124314e+003;4.375136e+001
1.126242e+003;4.451842e+001
1.128171e+003;4.523725e+001
1.130099e+003;4.587044e+001
1.132028e+003;4.638403e+001
1.133956e+003;4.678531e+001
1.135885e+003;4.709338e+001
1.137813e+003;4.733393e+001
1.139742e+003;4.752727e+001
1.141670e+003;4.768954e+001
1.143599e+003;4.781266e+001
1.145527e+003;4.790827e+001
1.147456e+003;4.798473e+001
1.149384e+003;4.805019e+001
1.151313e+003;4.811089e+001
1.153241e+003;4.816503e+001
1.155170e+003;4.821217e+001
1.157098e+003;4.825164e+001
1.159027e+003;4.827962e+001
1.160955e+003;4.830045e+001
1.162884e+003;4.832460e+001
1.164812e+003;4.835255e+001
1.166741e+003;4.838177e+001
1.168669e+003;4.841407e+001
1.170598e+003;4.843497e+001
1.172526e+003;4.845457e+001
1.174455e+003;4.847458e+001
1.176383e+003;4.849586e+001
1.178312e+003;4.851619e+001
1.180240e+003;4.855864e+001
1.182169e+003;4.858910e+001
1.184097e+003;4.860228e+001
1.186026e+003;4.862691e+001
1.187954e+003;4.864612e+001
1.189883e+003;4.867538e+001
1.191811e+003;4.870849e+001
1.193740e+003;4.874229e+001
1.195668e+003;4.877512e+001
1.197597e+003;4.879926e+001
1.199525e+003;4.881278e+001
1.201454e+003;4.883046e+001
1.203382e+003;4.884978e+001
1.205311e+003;4.887047e+001
1.207239e+003;4.888895e+001
1.209168e+003;4.889813e+001
1.211096e+003;4.889774e+001
1.213025e+003;4.889392e+001
1.214953e+003;4.888375e+001
1.216882e+003;4.887205e+001
1.218810e+003;4.886114e+001
1.220739e+003;4.884396e+001
1.222667e+003;4.882079e+001
1.224596e+003;4.879520e+001
1.226524e+003;4.876912e+001
1.228453e+003;4.875225e+001
1.230381e+003;4.874635e+001
1.232310e+003;4.874229e+001
1.234238e+003;4.873717e+001
1.236167e+003;4.872603e+001
1.238095e+003;4.870567e+001
1.240024e+003;4.868334e+001
1.241952e+003;4.866250e+001
1.243881e+003;4.864234e+001
1.245809e+003;4.862319e+001
1.247738e+003;4.860043e+001
1.249666e+003;4.856968e+001
1.251595e+003;4.853564e+001
1.253523e+003;4.850055e+001
1.255452e+003;4.846500e+001
1.257380e+003;4.843636e+001
1.259309e+003;4.840568e+001
1.261237e+003;4.836870e+001
1.263166e+003;4.832712e+001
1.265094e+003;4.828134e+001
1.267023e+003;4.823957e+001
1.268951e+003;4.820514e+001
1.270880e+003;4.817102e+001
1.272808e+003;4.813605e+001
1.274737e+003;4.809651e+001
1.276665e+003;4.804945e+001
1.278594e+003;4.800179e+001
1.280522e+003;4.795891e+001
1.282451e+003;4.791690e+001
1.284379e+003;4.788203e+001
1.286308e+003;4.784795e+001
1.288236e+003;4.780911e+001
1.290165e+003;4.777088e+001
1.292093e+003;4.773577e+001
1.294022e+003;4.770394e+001
1.295950e+003;4.768328e+001
1.297879e+003;4.766919e+001
1.299807e+003;4.765606e+001
1.301736e+003;4.764236e+001
1.303664e+003;4.762878e+001
1.305593e+003;4.761618e+001
1.307521e+003;4.761303e+001
1.309450e+003;4.761712e+001
1.311378e+003;4.762340e+001
1.313307e+003;4.763017e+001
1.315235e+003;4.763755e+001
1.317164e+003;4.764160e+001
1.319092e+003;4.764930e+001
1.321021e+003;4.766178e+001
1.322949e+003;4.767838e+001
1.324878e+003;4.769664e+001
1.326806e+003;4.771093e+001
1.328735e+003;4.771729e+001
1.330663e+003;4.772221e+001
1.332592e+003;4.772674e+001
1.334520e+003;4.773300e+001
1.336449e+003;4.774028e+001
1.338377e+003;4.774401e+001
1.340306e+003;4.773800e+001
1.342234e+003;4.772936e+001
1.344163e+003;4.771407e+001
1.346091e+003;4.769580e+001
1.348020e+003;4.768040e+001
1.349948e+003;4.766573e+001
1.351877e+003;4.764511e+001
1.353805e+003;4.762194e+001
1.355734e+003;4.759279e+001
1.357662e+003;4.756175e+001
1.359591e+003;4.753681e+001
1.361519e+003;4.751353e+001
1.363448e+003;4.748896e+001
1.365376e+003;4.747104e+001
1.367305e+003;4.744729e+001
1.369233e+003;4.742175e+001
1.371161e+003;4.739922e+001
1.373090e+003;4.737757e+001
1.375019e+003;4.736406e+001
1.376947e+003;4.735591e+001
1.378875e+003;4.734002e+001
1.380804e+003;4.732575e+001
1.382733e+003;4.731109e+001
1.384661e+003;4.729181e+001
1.386589e+003;4.727417e+001
1.388518e+003;4.726994e+001
1.390447e+003;4.726692e+001
1.392375e+003;4.726277e+001
1.394303e+003;4.725058e+001
1.396232e+003;4.722755e+001
1.398161e+003;4.721194e+001
1.400089e+003;4.720255e+001
1.402017e+003;4.719100e+001
1.403946e+003;4.718174e+001
1.405875e+003;4.716432e+001
1.407803e+003;4.714074e+001
1.409731e+003;4.711891e+001
1.411660e+003;4.709340e+001
1.413589e+003;4.706732e+001
1.415517e+003;4.704676e+001
1.417445e+003;4.702011e+001
1.419374e+003;4.698983e+001
1.421302e+003;4.694228e+001
1.423231e+003;4.688938e+001
1.425159e+003;4.684573e+001
1.427088e+003;4.680712e+001
1.429016e+003;4.675893e+001
1.430945e+003;4.671245e+001
1.432873e+003;4.666179e+001
1.434802e+003;4.660265e+001
1.436730e+003;4.654572e+001
1.438659e+003;4.650245e+001
1.440587e+003;4.646073e+001
1.442516e+003;4.643018e+001
1.444444e+003;4.640108e+001
1.446373e+003;4.637318e+001
1.448301e+003;4.635727e+001
1.450230e+003;4.635488e+001
1.452158e+003;4.636054e+001
1.454087e+003;4.638039e+001
1.456015e+003;4.638703e+001
1.457944e+003;4.642636e+001
1.459872e+003;4.648259e+001
1.461801e+003;4.651910e+001
1.463729e+003;4.655134e+001
1.465658e+003;4.659969e+001
1.467586e+003;4.665174e+001
1.469515e+003;4.669747e+001
1.471443e+003;4.673706e+001
1.473372e+003;4.675631e+001
1.475300e+003;4.678638e+001
1.477229e+003;4.682850e+001
1.479157e+003;4.686186e+001
1.481086e+003;4.689373e+001
1.483014e+003;4.692332e+001
1.484943e+003;4.693935e+001
1.486871e+003;4.695132e+001
1.488800e+003;4.696524e+001
1.490728e+003;4.697747e+001
1.492657e+003;4.699999e+001
1.494585e+003;4.700884e+001
1.496514e+003;4.700830e+001
1.498442e+003;4.701475e+001
1.500371e+003;4.701739e+001
1.502299e+003;4.701550e+001
1.504228e+003;4.702179e+001
1.506156e+003;4.700307e+001
1.508085e+003;4.699459e+001
1.510013e+003;4.700118e+001
1.511942e+003;4.698549e+001
1.513870e+003;4.697389e+001
1.515799e+003;4.696871e+001
1.517727e+003;4.695192e+001
1.519656e+003;4.694032e+001
1.521584e+003;4.693699e+001
1.523513e+003;4.692322e+001
1.525441e+003;4.690798e+001
1.527370e+003;4.689713e+001
1.529298e+003;4.687844e+001
1.531227e+003;4.687041e+001
1.533155e+003;4.685963e+001
1.535084e+003;4.684054e+001
1.537012e+003;4.682981e+001
1.538941e+003;4.680246e+001
1.540869e+003;4.677006e+001
1.542798e+003;4.676649e+001
1.544726e+003;4.675492e+001
1.546655e+003;4.674313e+001
1.548583e+003;4.673790e+001
1.550512e+003;4.671675e+001
1.552440e+003;4.668793e+001
1.554369e+003;4.667463e+001
1.556297e+003;4.666396e+001
1.558226e+003;4.664676e+001
1.560154e+003;4.663662e+001
1.562083e+003;4.661833e+001
1.564011e+003;4.659320e+001
1.565940e+003;4.658057e+001
1.567868e+003;4.655878e+001
1.569797e+003;4.654284e+001
1.571725e+003;4.653496e+001
1.573654e+003;4.650864e+001
1.575582e+003;4.647374e+001
1.577511e+003;4.646851e+001
1.579439e+003;4.645859e+001
1.581368e+003;4.644833e+001
1.583296e+003;4.643735e+001
1.585225e+003;4.641774e+001
1.587153e+003;4.640685e+001
1.589082e+003;4.639041e+001
1.591010e+003;4.636573e+001
1.592939e+003;4.635438e+001
1.594867e+003;4.633762e+001
1.596796e+003;4.632034e+001
1.598724e+003;4.631295e+001
1.600653e+003;4.629424e+001
1.602581e+003;4.627187e+001
1.604510e+003;4.626085e+001
1.606438e+003;4.624036e+001
1.608367e+003;4.622498e+001
1.610295e+003;4.621807e+001
1.612224e+003;4.619964e+001
1.614152e+003;4.618302e+001
1.616081e+003;4.616641e+001
1.618009e+003;4.614117e+001
1.619938e+003;4.613010e+001
1.621866e+003;4.611889e+001
1.623795e+003;4.610052e+001
1.625723e+003;4.609202e+001
1.627652e+003;4.607829e+001
1.629580e+003;4.605451e+001
1.631509e+003;4.604499e+001
1.633437e+003;4.603570e+001
1.635366e+003;4.602347e+001
1.637294e+003;4.601011e+001
1.639223e+003;4.599277e+001
1.641151e+003;4.597075e+001
1.643080e+003;4.595983e+001
1.645008e+003;4.593941e+001
1.646937e+003;4.591951e+001
1.648865e+003;4.591403e+001
1.650794e+003;4.589691e+001
1.652722e+003;4.585953e+001
1.654651e+003;4.585511e+001
1.656579e+003;4.584470e+001
1.658508e+003;4.582996e+001
1.660436e+003;4.582274e+001
1.662365e+003;4.580500e+001
1.664293e+003;4.579042e+001
1.666222e+003;4.577695e+001
1.668150e+003;4.574860e+001
1.670079e+003;4.573494e+001
1.672007e+003;4.572654e+001
1.673936e+003;4.569939e+001
1.675864e+003;4.568803e+001
1.677793e+003;4.568382e+001
1.679721e+003;4.566177e+001
1.681650e+003;4.564791e+001
1.683578e+003;4.562955e+001
1.685507e+003;4.561383e+001
1.687435e+003;4.560523e+001
1.689364e+003;4.558636e+001
1.691292e+003;4.556145e+001
1.693221e+003;4.554784e+001
1.695149e+003;4.552285e+001
1.697078e+003;4.549695e+001
1.699006e+003;4.546466e+001
1.700935e+003;4.543436e+001
1.702863e+003;4.542886e+001
1.704792e+003;4.541169e+001
1.706720e+003;4.537331e+001
1.708649e+003;4.534967e+001
1.710577e+003;4.532843e+001
1.712505e+003;4.529539e+001
1.714434e+003;4.527188e+001
1.716363e+003;4.524312e+001
1.718291e+003;4.521586e+001
1.720219e+003;4.521143e+001
1.722148e+003;4.519687e+001
1.724077e+003;4.517887e+001
1.726005e+003;4.517561e+001
1.727933e+003;4.517091e+001
1.729862e+003;4.515925e+001
1.731791e+003;4.515304e+001
1.733719e+003;4.513868e+001
1.735647e+003;4.514017e+001
1.737576e+003;4.514493e+001
1.739505e+003;4.513623e+001
1.741433e+003;4.512798e+001
1.743361e+003;4.512598e+001
1.745290e+003;4.510508e+001
1.747219e+003;4.509295e+001
1.749147e+003;4.508783e+001
1.751075e+003;4.507177e+001
1.753004e+003;4.505786e+001
1.754932e+003;4.504841e+001
1.756861e+003;4.502407e+001
1.758789e+003;4.500850e+001
1.760718e+003;4.498953e+001
1.762646e+003;4.496817e+001
1.764575e+003;4.496225e+001
1.766503e+003;4.495302e+001
1.768432e+003;4.492936e+001
1.770360e+003;4.491236e+001
1.772289e+003;4.488451e+001
1.774217e+003;4.486662e+001
1.776146e+003;4.486330e+001
1.778074e+003;4.484853e+001
1.780003e+003;4.482680e+001
1.781931e+003;4.481870e+001
1.783860e+003;4.479815e+001
1.785788e+003;4.477777e+001
1.787717e+003;4.476633e+001
1.789645e+003;4.474612e+001
1.791574e+003;4.472932e+001
1.793502e+003;4.472147e+001
1.795431e+003;4.469698e+001
1.797359e+003;4.468015e+001
1.799288e+003;4.466578e+001
1.801216e+003;4.464162e+001
1.803145e+003;4.462941e+001
1.805073e+003;4.462171e+001
1.807002e+003;4.459731e+001
1.808930e+003;4.458265e+001
1.810859e+003;4.456470e+001
1.812787e+003;4.454202e+001
1.814716e+003;4.453251e+001
1.816644e+003;4.451848e+001
1.818573e+003;4.449548e+001
1.820501e+003;4.448625e+001
1.822430e+003;4.446457e+001
1.824358e+003;4.443966e+001
1.826287e+003;4.443064e+001
1.828215e+003;4.441311e+001
1.830144e+003;4.439211e+001
1.832072e+003;4.438649e+001
1.834001e+003;4.436300e+001
1.835929e+003;4.434336e+001
1.837858e+003;4.433186e+001
1.839786e+003;4.431009e+001
1.841715e+003;4.429251e+001
1.843643e+003;4.427818e+001
1.845572e+003;4.425539e+001
1.847500e+003;4.424593e+001
1.849429e+003;4.423213e+001
1.851357e+003;4.420679e+001
1.853286e+003;4.419459e+001
1.855214e+003;4.418431e+001
1.857143e+003;4.415957e+001
1.859071e+003;4.414853e+001
1.861000e+003;4.412863e+001
1.862928e+003;4.410404e+001
1.864857e+003;4.409526e+001
1.866785e+003;4.407722e+001
1.868714e+003;4.405071e+001
1.870642e+003;4.404475e+001
1.872571e+003;4.402360e+001
1.874499e+003;4.400163e+001
1.876428e+003;4.399106e+001
1.878356e+003;4.396691e+001
1.880285e+003;4.394687e+001
1.882213e+003;4.394088e+001
1.884142e+003;4.391322e+001
1.886070e+003;4.389269e+001
1.887999e+003;4.387887e+001
1.889927e+003;4.385153e+001
1.891856e+003;4.383529e+001
1.893784e+003;4.382284e+001
1.895713e+003;4.379108e+001
1.897641e+003;4.377648e+001
1.899570e+003;4.375675e+001
1.901498e+003;4.372389e+001
1.903427e+003;4.370652e+001
1.905355e+003;4.368617e+001
1.907284e+003;4.365475e+001
1.909212e+003;4.364051e+001
1.911141e+003;4.361005e+001
1.913069e+003;4.357566e+001
1.914998e+003;4.355771e+001
1.916926e+003;4.352631e+001
1.918855e+003;4.349165e+001
1.920783e+003;4.347346e+001
1.922712e+003;4.343606e+001
1.924640e+003;4.340170e+001
1.926569e+003;4.337313e+001
1.928497e+003;4.332953e+001
1.930426e+003;4.329575e+001
1.932354e+003;4.326958e+001
1.934283e+003;4.321973e+001
1.936211e+003;4.318282e+001
1.938140e+003;4.314590e+001
1.940068e+003;4.309369e+001
1.941997e+003;4.305605e+001
1.943925e+003;4.301750e+001
1.945854e+003;4.296117e+001
1.947782e+003;4.292558e+001
1.949711e+003;4.287862e+001
1.951639e+003;4.281895e+001
1.953568e+003;4.277878e+001
1.955496e+003;4.273105e+001
1.957425e+003;4.267508e+001
1.959353e+003;4.263804e+001
1.961282e+003;4.258044e+001
1.963210e+003;4.252497e+001
1.965139e+003;4.248615e+001
1.967067e+003;4.242981e+001
1.968996e+003;4.237627e+001
1.970924e+003;4.234146e+001
1.972853e+003;4.228550e+001
1.974781e+003;4.224075e+001
1.976710e+003;4.220246e+001
1.978638e+003;4.214548e+001
1.980567e+003;4.210628e+001
1.982495e+003;4.207679e+001
1.984424e+003;4.202441e+001
1.986352e+003;4.199413e+001
1.988281e+003;4.196341e+001
1.990209e+003;4.191998e+001
1.992138e+003;4.189763e+001
1.994066e+003;4.187296e+001
1.995995e+003;4.183632e+001
1.997923e+003;4.182805e+001
1.999852e+003;4.180487e+001
2.001780e+003;4.177609e+001
2.003709e+003;4.177130e+001
2.005637e+003;4.175482e+001
2.007566e+003;4.173715e+001
2.009494e+003;4.174311e+001
2.011423e+003;4.172636e+001
2.013351e+003;4.171802e+001
2.015280e+003;4.172599e+001
2.017208e+003;4.171170e+001
2.019137e+003;4.170766e+001
2.021065e+003;4.172057e+001
2.022994e+003;4.170865e+001
2.024922e+003;4.171385e+001
2.026851e+003;4.172050e+001
2.028779e+003;4.170657e+001
2.030708e+003;4.171304e+001
2.032636e+003;4.172175e+001
2.034565e+003;4.170645e+001
2.036493e+003;4.171669e+001
2.038422e+003;4.171844e+001
2.040350e+003;4.170509e+001
2.042279e+003;4.171304e+001
2.044207e+003;4.171049e+001
2.046135e+003;4.169670e+001
2.048064e+003;4.170984e+001
2.049992e+003;4.169994e+001
2.051921e+003;4.168594e+001
2.053850e+003;4.169300e+001
2.055778e+003;4.168137e+001
2.057707e+003;4.167144e+001
2.059635e+003;4.168149e+001
2.061563e+003;4.166313e+001
2.063492e+003;4.165811e+001
2.065420e+003;4.166446e+001
2.067349e+003;4.164532e+001
2.069278e+003;4.164177e+001
2.071206e+003;4.165060e+001
2.073135e+003;4.163493e+001
2.075063e+003;4.164209e+001
2.076991e+003;4.164477e+001
2.078920e+003;4.162986e+001
2.080848e+003;4.164081e+001
2.082777e+003;4.164714e+001
2.084706e+003;4.163624e+001
2.086634e+003;4.165520e+001
2.088563e+003;4.165860e+001
2.090491e+003;4.165519e+001
2.092419e+003;4.167592e+001
2.094348e+003;4.167945e+001
2.096276e+003;4.168123e+001
2.098205e+003;4.171081e+001
2.100134e+003;4.171355e+001
2.102062e+003;4.172066e+001
2.103990e+003;4.174525e+001
2.105919e+003;4.174797e+001
2.107847e+003;4.176014e+001
2.109776e+003;4.178685e+001
2.111704e+003;4.178544e+001
2.113633e+003;4.180567e+001
2.115562e+003;4.182678e+001
2.117490e+003;4.182320e+001
2.119418e+003;4.184050e+001
2.121347e+003;4.185933e+001
2.123275e+003;4.185541e+001
2.125204e+003;4.187829e+001
2.127132e+003;4.188825e+001
2.129061e+003;4.188292e+001
2.130990e+003;4.190183e+001
2.132918e+003;4.190819e+001
2.134846e+003;4.190091e+001
2.136775e+003;4.192204e+001
2.138703e+003;4.192018e+001
2.140632e+003;4.191622e+001
2.142560e+003;4.193013e+001
2.144489e+003;4.192054e+001
2.146417e+003;4.191580e+001
2.148346e+003;4.193205e+001
2.150274e+003;4.191656e+001
2.152203e+003;4.191367e+001
2.154131e+003;4.192126e+001
2.156060e+003;4.190382e+001
2.157988e+003;4.190044e+001
2.159917e+003;4.190359e+001
2.161845e+003;4.188030e+001
2.163774e+003;4.188359e+001
2.165702e+003;4.188071e+001
2.167631e+003;4.185696e+001
2.169559e+003;4.185549e+001
2.171488e+003;4.184755e+001
2.173416e+003;4.182521e+001
2.175345e+003;4.183090e+001
2.177273e+003;4.181583e+001
2.179202e+003;4.179417e+001
2.181130e+003;4.179450e+001
2.183059e+003;4.177670e+001
2.184987e+003;4.175439e+001
2.186916e+003;4.175801e+001
2.188844e+003;4.173676e+001
2.190773e+003;4.172218e+001
2.192701e+003;4.172032e+001
2.194630e+003;4.169403e+001
2.196558e+003;4.167904e+001
2.198487e+003;4.168005e+001
2.200415e+003;4.165158e+001
2.202344e+003;4.164011e+001
2.204272e+003;4.163346e+001
2.206201e+003;4.160589e+001
2.208129e+003;4.159552e+001
2.210058e+003;4.158762e+001
2.211986e+003;4.155797e+001
2.213915e+003;4.155368e+001
2.215843e+003;4.153995e+001
2.217772e+003;4.151034e+001
2.219700e+003;4.150231e+001
2.221629e+003;4.148713e+001
2.223557e+003;4.145944e+001
2.225486e+003;4.145767e+001
2.227414e+003;4.143573e+001
2.229343e+003;4.141124e+001
2.231271e+003;4.140812e+001
2.233200e+003;4.138322e+001
2.235128e+003;4.135609e+001
2.237057e+003;4.135584e+001
2.238985e+003;4.132864e+001
2.240914e+003;4.130996e+001
2.242842e+003;4.130389e+001
2.244771e+003;4.127189e+001
2.246699e+003;4.125447e+001
2.248628e+003;4.125184e+001
2.250556e+003;4.121629e+001
2.252485e+003;4.120515e+001
2.254413e+003;4.119698e+001
2.256342e+003;4.116393e+001
2.258270e+003;4.115459e+001
2.260199e+003;4.114285e+001
2.262127e+003;4.110646e+001
2.264056e+003;4.110602e+001
2.265984e+003;4.109020e+001
2.267913e+003;4.105783e+001
2.269841e+003;4.105681e+001
2.271770e+003;4.103785e+001
2.273698e+003;4.100678e+001
2.275627e+003;4.101119e+001
2.277555e+003;4.098465e+001
2.279484e+003;4.096030e+001
2.281412e+003;4.096322e+001
2.283341e+003;4.093492e+001
2.285269e+003;4.091153e+001
2.287198e+003;4.091429e+001
2.289126e+003;4.088171e+001
2.291055e+003;4.086898e+001
2.292983e+003;4.086580e+001
2.294912e+003;4.083094e+001
2.296840e+003;4.082085e+001
2.298769e+003;4.081748e+001
2.300697e+003;4.077984e+001
2.302626e+003;4.077716e+001
2.304554e+003;4.076796e+001
2.306483e+003;4.073400e+001
2.308411e+003;4.073053e+001
2.310340e+003;4.071571e+001
2.312268e+003;4.068106e+001
2.314197e+003;4.068680e+001
2.316125e+003;4.066624e+001
2.318054e+003;4.063563e+001
2.319982e+003;4.063855e+001
2.321911e+003;4.061631e+001
2.323839e+003;4.058899e+001
2.325768e+003;4.059377e+001
2.327696e+003;4.056260e+001
2.329625e+003;4.054325e+001
2.331553e+003;4.054600e+001
2.333482e+003;4.051411e+001
2.335410e+003;4.049623e+001
2.337339e+003;4.049932e+001
2.339267e+003;4.046448e+001
2.341196e+003;4.045783e+001
2.343124e+003;4.045232e+001
2.345053e+003;4.041516e+001
2.346981e+003;4.041121e+001
2.348910e+003;4.040553e+001
2.350838e+003;4.036819e+001
2.352767e+003;4.037072e+001
2.354695e+003;4.035814e+001
2.356624e+003;4.032669e+001
2.358552e+003;4.032805e+001
2.360481e+003;4.030967e+001
2.362409e+003;4.027826e+001
2.364338e+003;4.028444e+001
2.366266e+003;4.025753e+001
2.368195e+003;4.023207e+001
2.370123e+003;4.023597e+001
2.372052e+003;4.020860e+001
2.373980e+003;4.018730e+001
2.375908e+003;4.019178e+001
2.377837e+003;4.015568e+001
2.379766e+003;4.014415e+001
2.381694e+003;4.014558e+001
2.383623e+003;4.010926e+001
2.385551e+003;4.009757e+001
2.387479e+003;4.009625e+001
2.389408e+003;4.005918e+001
2.391336e+003;4.005835e+001
2.393265e+003;4.004822e+001
2.395194e+003;4.001290e+001
2.397122e+003;4.001376e+001
2.399051e+003;4.000064e+001
2.400979e+003;3.996436e+001
2.402907e+003;3.997066e+001
2.404836e+003;3.995066e+001
2.406764e+003;3.992218e+001
2.408693e+003;3.992590e+001
2.410622e+003;3.990015e+001
2.412550e+003;3.987436e+001
2.414479e+003;3.988324e+001
2.416407e+003;3.985116e+001
2.418335e+003;3.983355e+001
2.420264e+003;3.983671e+001
2.422192e+003;3.980346e+001
2.424121e+003;3.978894e+001
2.426050e+003;3.979003e+001
2.427978e+003;3.975194e+001
2.429906e+003;3.974951e+001
2.431835e+003;3.974584e+001
2.433763e+003;3.970809e+001
2.435692e+003;3.970429e+001
2.437620e+003;3.969669e+001
2.439549e+003;3.965991e+001
2.441478e+003;3.966430e+001
2.443406e+003;3.964626e+001
2.445334e+003;3.961400e+001
2.447263e+003;3.961860e+001
2.449191e+003;3.959794e+001
2.451120e+003;3.956829e+001
2.453048e+003;3.957771e+001
2.454977e+003;3.954871e+001
2.456906e+003;3.952788e+001
2.458834e+003;3.953284e+001
2.460762e+003;3.949936e+001
2.462691e+003;3.948174e+001
2.464619e+003;3.948949e+001
2.466548e+003;3.945152e+001
2.468476e+003;3.944203e+001
2.470405e+003;3.944074e+001
2.472333e+003;3.940276e+001
2.474262e+003;3.939844e+001
2.476190e+003;3.939503e+001
2.478119e+003;3.935379e+001
2.480047e+003;3.935826e+001
2.481976e+003;3.934637e+001
2.483904e+003;3.930905e+001
2.485833e+003;3.931411e+001
2.487761e+003;3.929872e+001
2.489690e+003;3.926450e+001
2.491618e+003;3.927591e+001
2.493547e+003;3.924869e+001
2.495475e+003;3.922038e+001
2.497404e+003;3.923032e+001
2.499332e+003;3.920076e+001
2.501261e+003;3.917591e+001
2.503189e+003;3.918772e+001
2.505118e+003;3.915097e+001
2.507046e+003;3.913713e+001
2.508975e+003;3.914320e+001
2.510903e+003;3.910413e+001
2.512832e+003;3.909481e+001
2.514760e+003;3.910122e+001
2.516689e+003;3.905790e+001
2.518617e+003;3.905678e+001
2.520546e+003;3.905315e+001
2.522474e+003;3.901311e+001
2.524403e+003;3.901398e+001
2.526331e+003;3.900613e+001
2.528260e+003;3.896639e+001
2.530188e+003;3.897716e+001
2.532117e+003;3.895850e+001
2.534045e+003;3.892136e+001
2.535974e+003;3.892959e+001
2.537902e+003;3.890682e+001
2.539831e+003;3.887469e+001
2.541759e+003;3.888958e+001
2.543688e+003;3.885659e+001
2.545616e+003;3.883369e+001
2.547545e+003;3.884644e+001
2.549473e+003;3.881037e+001
2.551402e+003;3.878878e+001
2.553330e+003;3.880049e+001
2.555259e+003;3.875975e+001
2.557187e+003;3.875061e+001
2.559116e+003;3.875400e+001
2.561044e+003;3.871147e+001
2.562973e+003;3.870732e+001
2.564901e+003;3.871009e+001
2.566830e+003;3.866481e+001
2.568758e+003;3.866816e+001
2.570687e+003;3.866043e+001
2.572615e+003;3.862130e+001
2.574544e+003;3.862601e+001
2.576472e+003;3.861235e+001
2.578401e+003;3.857375e+001
2.580329e+003;3.858783e+001
2.582258e+003;3.856638e+001
2.584186e+003;3.853378e+001
2.586115e+003;3.854261e+001
2.588043e+003;3.851728e+001
2.589972e+003;3.849048e+001
2.591900e+003;3.850274e+001
2.593829e+003;3.846807e+001
2.595757e+003;3.845101e+001
2.597686e+003;3.845916e+001
2.599614e+003;3.842293e+001
2.601543e+003;3.840766e+001
2.603471e+003;3.841348e+001
2.605400e+003;3.837518e+001
2.607328e+003;3.837132e+001
2.609257e+003;3.836592e+001
2.611185e+003;3.832756e+001
2.613114e+003;3.832772e+001
2.615042e+003;3.832079e+001
2.616971e+003;3.828085e+001
2.618899e+003;3.828732e+001
2.620828e+003;3.827135e+001
2.622756e+003;3.824135e+001
2.624685e+003;3.824706e+001
2.626613e+003;3.822331e+001
2.628542e+003;3.819410e+001
2.630470e+003;3.820588e+001
2.632399e+003;3.817487e+001
2.634327e+003;3.815274e+001
2.636256e+003;3.815802e+001
2.638184e+003;3.812672e+001
2.640113e+003;3.811206e+001
2.642041e+003;3.811739e+001
2.643970e+003;3.807669e+001
2.645898e+003;3.807168e+001
2.647827e+003;3.807135e+001
2.649755e+003;3.803194e+001
2.651684e+003;3.802764e+001
2.653612e+003;3.802392e+001
2.655541e+003;3.798589e+001
2.657469e+003;3.799288e+001
2.659398e+003;3.797644e+001
2.661326e+003;3.794007e+001
2.663255e+003;3.794913e+001
2.665183e+003;3.793051e+001
2.667112e+003;3.789515e+001
2.669040e+003;3.790863e+001
2.670969e+003;3.788043e+001
2.672897e+003;3.785571e+001
2.674826e+003;3.786584e+001
2.676754e+003;3.783146e+001
2.678683e+003;3.781028e+001
2.680611e+003;3.782500e+001
2.682540e+003;3.778405e+001
2.684468e+003;3.777079e+001
2.686397e+003;3.777636e+001
2.688325e+003;3.773642e+001
2.690254e+003;3.773061e+001
2.692182e+003;3.773417e+001
2.694111e+003;3.768771e+001
2.696039e+003;3.769258e+001
2.697968e+003;3.768947e+001
2.699896e+003;3.764616e+001
2.701825e+003;3.765007e+001
2.703753e+003;3.764175e+001
2.705682e+003;3.760104e+001
2.707610e+003;3.761424e+001
2.709539e+003;3.759192e+001
2.711467e+003;3.755585e+001
2.713396e+003;3.757129e+001
2.715324e+003;3.754881e+001
2.717253e+003;3.751509e+001
2.719181e+003;3.753089e+001
2.721110e+003;3.749834e+001
2.723038e+003;3.747709e+001
2.724967e+003;3.748888e+001
2.726895e+003;3.745166e+001
2.728823e+003;3.743339e+001
2.730752e+003;3.744689e+001
2.732681e+003;3.740491e+001
2.734609e+003;3.739557e+001
2.736538e+003;3.739942e+001
2.738466e+003;3.736156e+001
2.740395e+003;3.735734e+001
2.742323e+003;3.735522e+001
2.744251e+003;3.731288e+001
2.746180e+003;3.732014e+001
2.748109e+003;3.731245e+001
2.750037e+003;3.727423e+001
2.751966e+003;3.727741e+001
2.753894e+003;3.726482e+001
2.755823e+003;3.723176e+001
2.757751e+003;3.724271e+001
2.759679e+003;3.721775e+001
2.761608e+003;3.719065e+001
2.763537e+003;3.719895e+001
2.765465e+003;3.717285e+001
2.767394e+003;3.714884e+001
2.769322e+003;3.715726e+001
2.771250e+003;3.712436e+001
2.773179e+003;3.711324e+001
2.775107e+003;3.711446e+001
2.777036e+003;3.707821e+001
2.778965e+003;3.707016e+001
2.780893e+003;3.707315e+001
2.782822e+003;3.703337e+001
2.784750e+003;3.703094e+001
2.786678e+003;3.702403e+001
2.788607e+003;3.699313e+001
2.790535e+003;3.699569e+001
2.792464e+003;3.698043e+001
2.794393e+003;3.694566e+001
2.796321e+003;3.695804e+001
2.798250e+003;3.693550e+001
2.800178e+003;3.690667e+001
2.802106e+003;3.691320e+001
2.804035e+003;3.688783e+001
2.805963e+003;3.686688e+001
2.807892e+003;3.687808e+001
2.809821e+003;3.684026e+001
2.811749e+003;3.682627e+001
2.813677e+003;3.683461e+001
2.815606e+003;3.679863e+001
2.817534e+003;3.678685e+001
2.819463e+003;3.679050e+001
2.821391e+003;3.674947e+001
2.823320e+003;3.675136e+001
2.825249e+003;3.674566e+001
2.827177e+003;3.670394e+001
2.829105e+003;3.670962e+001
2.831034e+003;3.670541e+001
2.832962e+003;3.666204e+001
2.834891e+003;3.667142e+001
2.836819e+003;3.665559e+001
2.838748e+003;3.662385e+001
2.840677e+003;3.663419e+001
2.842605e+003;3.661042e+001
2.844533e+003;3.657757e+001
2.846462e+003;3.659650e+001
2.848390e+003;3.656506e+001
2.850319e+003;3.653749e+001
2.852247e+003;3.654970e+001
2.854176e+003;3.651861e+001
2.856104e+003;3.649985e+001
2.858033e+003;3.651274e+001
2.859961e+003;3.646985e+001
2.861890e+003;3.646012e+001
2.863818e+003;3.646970e+001
2.865747e+003;3.643059e+001
2.867675e+003;3.642085e+001
2.869604e+003;3.642457e+001
2.871532e+003;3.638565e+001
2.873461e+003;3.639014e+001
2.875389e+003;3.638120e+001
2.877318e+003;3.634073e+001
2.879246e+003;3.634680e+001
2.881175e+003;3.634052e+001
2.883103e+003;3.630056e+001
2.885032e+003;3.630790e+001
2.886960e+003;3.628953e+001
2.888889e+003;3.626305e+001
2.890817e+003;3.627046e+001
2.892746e+003;3.624582e+001
2.894674e+003;3.621960e+001
2.896603e+003;3.623267e+001
2.898531e+003;3.620214e+001
2.900460e+003;3.618216e+001
2.902388e+003;3.618425e+001
2.904317e+003;3.615478e+001
2.906245e+003;3.614437e+001
2.908174e+003;3.614586e+001
2.910102e+003;3.610644e+001
2.912031e+003;3.610598e+001
2.913959e+003;3.610389e+001
2.915888e+003;3.606903e+001
2.917816e+003;3.606332e+001
2.919745e+003;3.605254e+001
2.921673e+003;3.602125e+001
2.923602e+003;3.602868e+001
2.925530e+003;3.600489e+001
2.927459e+003;3.597574e+001
2.929387e+003;3.598613e+001
2.931316e+003;3.596535e+001
2.933244e+003;3.593646e+001
2.935173e+003;3.594458e+001
2.937101e+003;3.591492e+001
2.939030e+003;3.590247e+001
2.940958e+003;3.590710e+001
2.942887e+003;3.587018e+001
2.944815e+003;3.585848e+001
2.946744e+003;3.586751e+001
2.948672e+003;3.582702e+001
2.950601e+003;3.582155e+001
2.952529e+003;3.581882e+001
2.954458e+003;3.578337e+001
2.956386e+003;3.578589e+001
2.958315e+003;3.577858e+001
2.960243e+003;3.573304e+001
2.962172e+003;3.574485e+001
2.964100e+003;3.573492e+001
2.966029e+003;3.569657e+001
2.967957e+003;3.570363e+001
2.969886e+003;3.568817e+001
2.971814e+003;3.565542e+001
2.973743e+003;3.567110e+001
2.975671e+003;3.564214e+001
2.977600e+003;3.561507e+001
2.979528e+003;3.563160e+001
2.981457e+003;3.560437e+001
2.983385e+003;3.557777e+001
2.985314e+003;3.559002e+001
2.987242e+003;3.555440e+001
2.989171e+003;3.554245e+001
2.991099e+003;3.555019e+001
2.993028e+003;3.551266e+001
2.994956e+003;3.550247e+001
2.996885e+003;3.551265e+001
2.998813e+003;3.547209e+001
3.000742e+003;3.546719e+001
3.002670e+003;3.546342e+001
3.004599e+003;3.543079e+001
3.006527e+003;3.543348e+001
3.008456e+003;3.542543e+001
3.010384e+003;3.538765e+001
3.012313e+003;3.539797e+001
3.014241e+003;3.538442e+001
3.016170e+003;3.535273e+001
3.018098e+003;3.535420e+001
3.020027e+003;3.533616e+001
3.021955e+003;3.531264e+001
3.023884e+003;3.532131e+001
3.025812e+003;3.529029e+001
3.027741e+003;3.527235e+001
3.029669e+003;3.527908e+001
3.031598e+003;3.525199e+001
3.033526e+003;3.523483e+001
3.035455e+003;3.523586e+001
3.037383e+003;3.520451e+001
3.039312e+003;3.520386e+001
3.041240e+003;3.519804e+001
3.043169e+003;3.516282e+001
3.045097e+003;3.516220e+001
3.047026e+003;3.515918e+001
3.048954e+003;3.512516e+001
3.050883e+003;3.512737e+001
3.052811e+003;3.511018e+001
3.054740e+003;3.508718e+001
3.056668e+003;3.509368e+001
3.058597e+003;3.506896e+001
3.060525e+003;3.503974e+001
3.062454e+003;3.505417e+001
3.064382e+003;3.502847e+001
3.066311e+003;3.500885e+001
3.068239e+003;3.501266e+001
3.070167e+003;3.498259e+001
3.072096e+003;3.497014e+001
3.074025e+003;3.497837e+001
3.075953e+003;3.493837e+001
3.077882e+003;3.493430e+001
3.079810e+003;3.493863e+001
3.081739e+003;3.490074e+001
3.083667e+003;3.489365e+001
3.085595e+003;3.489185e+001
3.087524e+003;3.485500e+001
3.089453e+003;3.486396e+001
3.091381e+003;3.485267e+001
3.093310e+003;3.481307e+001
3.095238e+003;3.482138e+001
3.097167e+003;3.481394e+001
3.099095e+003;3.477629e+001
3.101023e+003;3.478483e+001
3.102952e+003;3.476500e+001
3.104881e+003;3.474219e+001
3.106809e+003;3.475161e+001
3.108738e+003;3.472442e+001
3.110666e+003;3.469701e+001
3.112594e+003;3.471409e+001
3.114523e+003;3.468743e+001
3.116451e+003;3.466705e+001
3.118380e+003;3.466896e+001
3.120309e+003;3.464175e+001
3.122237e+003;3.463130e+001
3.124166e+003;3.463554e+001
3.126094e+003;3.459644e+001
3.128022e+003;3.459243e+001
3.129951e+003;3.459366e+001
3.131879e+003;3.456193e+001
3.133808e+003;3.455288e+001
3.135737e+003;3.454700e+001
3.137665e+003;3.451963e+001
3.139594e+003;3.452535e+001
3.141522e+003;3.450688e+001
3.143450e+003;3.448003e+001
3.145379e+003;3.448541e+001
3.147307e+003;3.447167e+001
3.149236e+003;3.444474e+001
3.151165e+003;3.444811e+001
3.153093e+003;3.442410e+001
3.155021e+003;3.441129e+001
3.156950e+003;3.441061e+001
3.158878e+003;3.438117e+001
3.160807e+003;3.436874e+001
3.162735e+003;3.437452e+001
3.164664e+003;3.434369e+001
3.166593e+003;3.433742e+001
3.168521e+003;3.432986e+001
3.170449e+003;3.430272e+001
3.172378e+003;3.430405e+001
3.174306e+003;3.429472e+001
3.176235e+003;3.425809e+001
3.178163e+003;3.426639e+001
3.180092e+003;3.425423e+001
3.182021e+003;3.422638e+001
3.183949e+003;3.422876e+001
3.185877e+003;3.421085e+001
3.187806e+003;3.418799e+001
3.189734e+003;3.420055e+001
3.191663e+003;3.416911e+001
3.193591e+003;3.414735e+001
3.195520e+003;3.415946e+001
3.197448e+003;3.413397e+001
3.199377e+003;3.411166e+001
3.201305e+003;3.411876e+001
3.203234e+003;3.408769e+001
3.205162e+003;3.408341e+001
3.207091e+003;3.408636e+001
3.209019e+003;3.404919e+001
3.210948e+003;3.404183e+001
3.212876e+003;3.404879e+001
3.214805e+003;3.401253e+001
3.216733e+003;3.400948e+001
3.218662e+003;3.400325e+001
3.220590e+003;3.397574e+001
3.222519e+003;3.397886e+001
3.224447e+003;3.396988e+001
3.226376e+003;3.393396e+001
3.228304e+003;3.394226e+001
3.230233e+003;3.393058e+001
3.232161e+003;3.390498e+001
3.234090e+003;3.390477e+001
3.236018e+003;3.388946e+001
3.237947e+003;3.387008e+001
3.239875e+003;3.387656e+001
3.241804e+003;3.384838e+001
3.243732e+003;3.383168e+001
3.245661e+003;3.383613e+001
3.247589e+003;3.381491e+001
3.249518e+003;3.379618e+001
3.251446e+003;3.379522e+001
3.253375e+003;3.377048e+001
3.255303e+003;3.376779e+001
3.257232e+003;3.375875e+001
3.259160e+003;3.373112e+001
3.261089e+003;3.372797e+001
3.263017e+003;3.372418e+001
3.264946e+003;3.369665e+001
3.266874e+003;3.369555e+001
3.268803e+003;3.367986e+001
3.270731e+003;3.366470e+001
3.272660e+003;3.366452e+001
3.274588e+003;3.364300e+001
3.276517e+003;3.362133e+001
3.278445e+003;3.362923e+001
3.280374e+003;3.360707e+001
3.282302e+003;3.359234e+001
3.284231e+003;3.358911e+001
3.286159e+003;3.356529e+001
3.288088e+003;3.355649e+001
3.290016e+003;3.355848e+001
3.291945e+003;3.352502e+001
3.293873e+003;3.352266e+001
3.295802e+003;3.352120e+001
3.297730e+003;3.349278e+001
3.299659e+003;3.348578e+001
3.301587e+003;3.348056e+001
3.303516e+003;3.345392e+001
3.305444e+003;3.346201e+001
3.307373e+003;3.344535e+001
3.309301e+003;3.341517e+001
3.311230e+003;3.342062e+001
3.313158e+003;3.341156e+001
3.315087e+003;3.338263e+001
3.317015e+003;3.338707e+001
3.318944e+003;3.336562e+001
3.320872e+003;3.334744e+001
3.322801e+003;3.335320e+001
3.324729e+003;3.333109e+001
3.326658e+003;3.330907e+001
3.328586e+003;3.331839e+001
3.330515e+003;3.329488e+001
3.332443e+003;3.328023e+001
3.334372e+003;3.327705e+001
3.336300e+003;3.325558e+001
3.338229e+003;3.324642e+001
3.340157e+003;3.324601e+001
3.342086e+003;3.321535e+001
3.344014e+003;3.321035e+001
3.345943e+003;3.320613e+001
3.347871e+003;3.318496e+001
3.349800e+003;3.317618e+001
3.351728e+003;3.316700e+001
3.353657e+003;3.314404e+001
3.355585e+003;3.314563e+001
3.357514e+003;3.312809e+001
3.359442e+003;3.310821e+001
3.361371e+003;3.310751e+001
3.363299e+003;3.309670e+001
3.365228e+003;3.307799e+001
3.367156e+003;3.307490e+001
3.369085e+003;3.305347e+001
3.371013e+003;3.304596e+001
3.372942e+003;3.303886e+001
3.374870e+003;3.301397e+001
3.376799e+003;3.300325e+001
3.378727e+003;3.300554e+001
3.380656e+003;3.298296e+001
3.382584e+003;3.297559e+001
3.384513e+003;3.296126e+001
3.386441e+003;3.294302e+001
3.388370e+003;3.294447e+001
3.390298e+003;3.293465e+001
3.392227e+003;3.290493e+001
3.394155e+003;3.290746e+001
3.396083e+003;3.289444e+001
3.398012e+003;3.287624e+001
3.399941e+003;3.287246e+001
3.401869e+003;3.285506e+001
3.403798e+003;3.283823e+001
3.405726e+003;3.284427e+001
3.407655e+003;3.281675e+001
3.409583e+003;3.279967e+001
3.411511e+003;3.280332e+001
3.413440e+003;3.278771e+001
3.415369e+003;3.277026e+001
3.417297e+003;3.276683e+001
3.419226e+003;3.274203e+001
3.421154e+003;3.274082e+001
3.423083e+003;3.273741e+001
3.425011e+003;3.270929e+001
3.426939e+003;3.269906e+001
3.428868e+003;3.270157e+001
3.430797e+003;3.267698e+001
3.432725e+003;3.266923e+001
3.434654e+003;3.265755e+001
3.436582e+003;3.264104e+001
3.438510e+003;3.263972e+001
3.440439e+003;3.262866e+001
3.442367e+003;3.260020e+001
3.444296e+003;3.260099e+001
3.446225e+003;3.259177e+001
3.448153e+003;3.257488e+001
3.450082e+003;3.256414e+001
3.452010e+003;3.255096e+001
3.453938e+003;3.254016e+001
3.455867e+003;3.254093e+001
3.457795e+003;3.251662e+001
3.459724e+003;3.250207e+001
3.461653e+003;3.249976e+001
3.463581e+003;3.248948e+001
3.465510e+003;3.247458e+001
3.467438e+003;3.246485e+001
3.469366e+003;3.244810e+001
3.471295e+003;3.244811e+001
3.473223e+003;3.243502e+001
3.475152e+003;3.241343e+001
3.477081e+003;3.240548e+001
3.479009e+003;3.240341e+001
3.480938e+003;3.238601e+001
3.482866e+003;3.237601e+001
3.484794e+003;3.235847e+001
3.486723e+003;3.235201e+001
3.488651e+003;3.234928e+001
3.490580e+003;3.233066e+001
3.492509e+003;3.231133e+001
3.494437e+003;3.231319e+001
3.496365e+003;3.230017e+001
3.498294e+003;3.228955e+001
3.500222e+003;3.227541e+001
3.502151e+003;3.225962e+001
3.504079e+003;3.225646e+001
3.506008e+003;3.225367e+001
3.507937e+003;3.222483e+001
3.509865e+003;3.221834e+001
3.511793e+003;3.221767e+001
3.513722e+003;3.220527e+001
3.515650e+003;3.219163e+001
3.517579e+003;3.217976e+001
3.519507e+003;3.216229e+001
3.521436e+003;3.216648e+001
3.523365e+003;3.215127e+001
3.525293e+003;3.212860e+001
3.527221e+003;3.212371e+001
3.529150e+003;3.212180e+001
3.531078e+003;3.210233e+001
3.533007e+003;3.209278e+001
3.534935e+003;3.207757e+001
3.536864e+003;3.207255e+001
3.538792e+003;3.206972e+001
3.540721e+003;3.205294e+001
3.542649e+003;3.203272e+001
3.544578e+003;3.203628e+001
3.546506e+003;3.202676e+001
3.548435e+003;3.201201e+001
3.550363e+003;3.199640e+001
3.552292e+003;3.198682e+001
3.554220e+003;3.198046e+001
3.556149e+003;3.197416e+001
3.558077e+003;3.195172e+001
3.560006e+003;3.194350e+001
3.561934e+003;3.194025e+001
3.563863e+003;3.193085e+001
3.565791e+003;3.191036e+001
3.567720e+003;3.189948e+001
3.569648e+003;3.189402e+001
3.571577e+003;3.189217e+001
3.573505e+003;3.187341e+001
3.575434e+003;3.185688e+001
3.577362e+003;3.184938e+001
3.579291e+003;3.184899e+001
3.581219e+003;3.183509e+001
3.583148e+003;3.181973e+001
3.585076e+003;3.180469e+001
3.587005e+003;3.180378e+001
3.588933e+003;3.179545e+001
3.590862e+003;3.177893e+001
3.592790e+003;3.176362e+001
3.594719e+003;3.176397e+001
3.596647e+003;3.175598e+001
3.598576e+003;3.174380e+001
3.600504e+003;3.172529e+001
3.602433e+003;3.171999e+001
3.604361e+003;3.171698e+001
3.606290e+003;3.170538e+001
3.608218e+003;3.168090e+001
3.610147e+003;3.167625e+001
3.612075e+003;3.167589e+001
3.614004e+003;3.166750e+001
3.615932e+003;3.164861e+001
3.617861e+003;3.163758e+001
3.619789e+003;3.163066e+001
3.621718e+003;3.163043e+001
3.623646e+003;3.161266e+001
3.625575e+003;3.159648e+001
3.627503e+003;3.158843e+001
3.629432e+003;3.158843e+001
3.631360e+003;3.157286e+001
3.633289e+003;3.155961e+001
3.635217e+003;3.155030e+001
3.637146e+003;3.154925e+001
3.639074e+003;3.154131e+001
3.641003e+003;3.152643e+001
3.642931e+003;3.150803e+001
3.644860e+003;3.150948e+001
3.646788e+003;3.150061e+001
3.648717e+003;3.147969e+001
3.650645e+003;3.146667e+001
3.652574e+003;3.146913e+001
3.654502e+003;3.146033e+001
3.656431e+003;3.145186e+001
3.658359e+003;3.143322e+001
3.660288e+003;3.142618e+001
3.662216e+003;3.142924e+001
3.664145e+003;3.142046e+001
3.666073e+003;3.139521e+001
3.668002e+003;3.138797e+001
3.669930e+003;3.138140e+001
3.671859e+003;3.137767e+001
3.673787e+003;3.136041e+001
3.675716e+003;3.134241e+001
3.677644e+003;3.134154e+001
3.679573e+003;3.134742e+001
3.681501e+003;3.132620e+001
3.683430e+003;3.131134e+001
3.685358e+003;3.130656e+001
3.687287e+003;3.129958e+001
3.689215e+003;3.128683e+001
3.691144e+003;3.127337e+001
3.693072e+003;3.125788e+001
3.695001e+003;3.126518e+001
3.696929e+003;3.125746e+001
3.698858e+003;3.123616e+001
3.700786e+003;3.122274e+001
3.702715e+003;3.122317e+001
3.704643e+003;3.121421e+001
3.706572e+003;3.120517e+001
3.708500e+003;3.118242e+001
3.710429e+003;3.117405e+001
3.712357e+003;3.117746e+001
3.714286e+003;3.116628e+001
3.716214e+003;3.114324e+001
3.718143e+003;3.114354e+001
3.720071e+003;3.113741e+001
3.722000e+003;3.113201e+001
3.723928e+003;3.111640e+001
3.725857e+003;3.109747e+001
3.727785e+003;3.109704e+001
3.729714e+003;3.110174e+001
3.731642e+003;3.107327e+001
3.733571e+003;3.106331e+001
3.735499e+003;3.106219e+001
3.737427e+003;3.105551e+001
3.739356e+003;3.104596e+001
3.741285e+003;3.102905e+001
3.743213e+003;3.100339e+001
3.745142e+003;3.101203e+001
3.747070e+003;3.100212e+001
3.748999e+003;3.097357e+001
3.750927e+003;3.096486e+001
3.752855e+003;3.096557e+001
3.754784e+003;3.095663e+001
3.756713e+003;3.094954e+001
3.758641e+003;3.092464e+001
3.760570e+003;3.092147e+001
3.762498e+003;3.092790e+001
3.764427e+003;3.090645e+001
3.766355e+003;3.088352e+001
3.768283e+003;3.088728e+001
3.770212e+003;3.087710e+001
3.772141e+003;3.087229e+001
3.774069e+003;3.085631e+001
3.775998e+003;3.083737e+001
3.777926e+003;3.084218e+001
3.779854e+003;3.084254e+001
3.781783e+003;3.081290e+001
3.783711e+003;3.080820e+001
3.785640e+003;3.080362e+001
3.787569e+003;3.079415e+001
3.789497e+003;3.078881e+001
3.791426e+003;3.076999e+001
3.793354e+003;3.075415e+001
3.795282e+003;3.076882e+001
3.797211e+003;3.074953e+001
3.799139e+003;3.072558e+001
3.801068e+003;3.072380e+001
3.802997e+003;3.071886e+001
3.804925e+003;3.071036e+001
3.806854e+003;3.070611e+001
3.808782e+003;3.067704e+001
3.810710e+003;3.068196e+001
3.812639e+003;3.068874e+001
3.814567e+003;3.065659e+001
3.816496e+003;3.064049e+001
3.818425e+003;3.064927e+001
3.820353e+003;3.063116e+001
3.822281e+003;3.063173e+001
3.824210e+003;3.061585e+001
3.826138e+003;3.059435e+001
3.828067e+003;3.060540e+001
3.829995e+003;3.060006e+001
3.831924e+003;3.056477e+001
3.833853e+003;3.056743e+001
3.835781e+003;3.056130e+001
3.837709e+003;3.055158e+001
3.839638e+003;3.054843e+001
3.841566e+003;3.052678e+001
3.843495e+003;3.051638e+001
3.845423e+003;3.053469e+001
3.847352e+003;3.050923e+001
3.849281e+003;3.048832e+001
3.851209e+003;3.048665e+001
3.853137e+003;3.047413e+001
3.855066e+003;3.047132e+001
3.856994e+003;3.046708e+001
3.858923e+003;3.043710e+001
3.860851e+003;3.044848e+001
3.862780e+003;3.044986e+001
3.864708e+003;3.041893e+001
3.866637e+003;3.041084e+001
3.868565e+003;3.041144e+001
3.870494e+003;3.039804e+001
3.872422e+003;3.040247e+001
3.874351e+003;3.037618e+001
3.876279e+003;3.036288e+001
3.878208e+003;3.037913e+001
3.880136e+003;3.036198e+001
3.882065e+003;3.033291e+001
3.883993e+003;3.033995e+001
3.885922e+003;3.032475e+001
3.887850e+003;3.032306e+001
3.889779e+003;3.031911e+001
3.891707e+003;3.028714e+001
3.893636e+003;3.028901e+001
3.895564e+003;3.030516e+001
3.897493e+003;3.026429e+001
3.899421e+003;3.025560e+001
3.901350e+003;3.026022e+001
3.903278e+003;3.024454e+001
3.905207e+003;3.024712e+001
3.907135e+003;3.023466e+001
3.909064e+003;3.020064e+001
3.910992e+003;3.022363e+001
3.912921e+003;3.021749e+001
3.914849e+003;3.018169e+001
3.916778e+003;3.018498e+001
3.918706e+003;3.018135e+001
3.920635e+003;3.016499e+001
3.922563e+003;3.017262e+001
3.924492e+003;3.014009e+001
3.926420e+003;3.012990e+001
3.928349e+003;3.015269e+001
3.930277e+003;3.012721e+001
3.932206e+003;3.009938e+001
3.934134e+003;3.011320e+001
3.936063e+003;3.009652e+001
3.937991e+003;3.009665e+001
3.939920e+003;3.008836e+001
3.941848e+003;3.005498e+001
3.943777e+003;3.006399e+001
3.945705e+003;3.007651e+001
3.947634e+003;3.003746e+001
3.949562e+003;3.003404e+001
3.951491e+003;3.003184e+001
3.953419e+003;3.001931e+001
3.955348e+003;3.002390e+001
3.957276e+003;3.000012e+001
3.959205e+003;2.997651e+001
3.961133e+003;3.000512e+001
3.963062e+003;2.998548e+001
3.964990e+003;2.995655e+001
3.966919e+003;2.996175e+001
3.968847e+003;2.994967e+001
3.970776e+003;2.994338e+001
3.972704e+003;2.994799e+001
3.974633e+003;2.990679e+001
3.976561e+003;2.991265e+001
3.978490e+003;2.992854e+001
3.980418e+003;2.989148e+001
3.982347e+003;2.988230e+001
3.984275e+003;2.989069e+001
3.986204e+003;2.986660e+001
3.988132e+003;2.987907e+001
3.990061e+003;2.986026e+001
3.991989e+003;2.982666e+001
3.993918e+003;2.985201e+001
3.995846e+003;2.984888e+001
3.997775e+003;2.980462e+001
3.999703e+003;2.981696e+001
