3.991989e+002;9.867646e+001
4.011274e+002;9.898425e+001
4.030559e+002;9.907352e+001
4.049844e+002;9.897105e+001
4.069129e+002;9.885010e+001
4.088414e+002;9.893504e+001
4.107699e+002;9.898174e+001
4.126984e+002;9.890931e+001
4.146269e+002;9.894749e+001
4.165554e+002;9.889446e+001
4.184839e+002;9.896075e+001
4.204124e+002;9.907689e+001
4.223409e+002;9.900748e+001
4.242694e+002;9.895139e+001
4.261979e+002;9.893178e+001
4.281264e+002;9.894643e+001
4.300549e+002;9.893781e+001
4.319834e+002;9.890887e+001
4.339119e+002;9.897768e+001
4.358404e+002;9.908362e+001
4.377689e+002;9.907809e+001
4.396974e+002;9.905090e+001
4.416259e+002;9.901679e+001
4.435544e+002;9.891811e+001
4.454829e+002;9.887652e+001
4.474114e+002;9.890201e+001
4.493399e+002;9.895018e+001
4.512684e+002;9.895558e+001
4.531969e+002;9.897094e+001
4.551254e+002;9.892441e+001
4.570539e+002;9.882240e+001
4.589824e+002;9.878519e+001
4.609109e+002;9.883133e+001
4.628394e+002;9.885484e+001
4.647679e+002;9.884779e+001
4.666964e+002;9.888566e+001
4.686248e+002;9.886948e+001
4.705533e+002;9.884141e+001
4.724818e+002;9.882892e+001
4.744103e+002;9.875404e+001
4.763388e+002;9.871590e+001
4.782673e+002;9.875967e+001
4.801958e+002;9.876989e+001
4.821243e+002;9.877246e+001
4.840528e+002;9.877459e+001
4.859813e+002;9.876048e+001
4.879098e+002;9.872331e+001
4.898383e+002;9.868132e+001
4.917668e+002;9.866280e+001
4.936953e+002;9.868954e+001
4.956238e+002;9.869926e+001
4.975523e+002;9.869695e+001
4.994808e+002;9.869056e+001
5.014093e+002;9.865254e+001
5.033378e+002;9.861033e+001
5.052663e+002;9.863026e+001
5.071948e+002;9.865898e+001
5.091233e+002;9.868906e+001
5.110518e+002;9.871922e+001
5.129803e+002;9.872797e+001
5.149088e+002;9.867793e+001
5.168373e+002;9.872102e+001
5.187657e+002;9.881481e+001
5.206943e+002;9.886868e+001
5.226227e+002;9.890185e+001
5.245513e+002;9.895622e+001
5.264797e+002;9.898627e+001
5.284083e+002;9.899487e+001
5.303367e+002;9.903301e+001
5.322653e+002;9.910552e+001
5.341937e+002;9.919255e+001
5.361223e+002;9.926804e+001
5.380507e+002;9.933119e+001
5.399792e+002;9.937781e+001
5.419077e+002;9.937499e+001
5.438362e+002;9.935371e+001
5.457647e+002;9.937851e+001
5.476932e+002;9.938657e+001
5.496217e+002;9.941162e+001
5.515502e+002;9.944053e+001
5.534787e+002;9.945279e+001
5.554072e+002;9.943376e+001
5.573357e+002;9.939963e+001
5.592642e+002;9.935584e+001
5.611927e+002;9.932238e+001
5.631212e+002;9.933157e+001
5.650497e+002;9.933038e+001
5.669782e+002;9.926891e+001
5.689067e+002;9.919907e+001
5.708352e+002;9.912617e+001
5.727637e+002;9.904176e+001
5.746922e+002;9.894853e+001
5.766207e+002;9.886980e+001
5.785492e+002;9.880449e+001
5.804777e+002;9.870910e+001
5.824062e+002;9.855981e+001
5.843347e+002;9.839551e+001
5.862632e+002;9.825269e+001
5.881917e+002;9.812434e+001
5.901202e+002;9.798618e+001
5.920486e+002;9.786043e+001
5.939772e+002;9.770242e+001
5.959056e+002;9.754283e+001
5.978342e+002;9.739339e+001
5.997626e+002;9.725616e+001
6.016912e+002;9.711603e+001
6.036196e+002;9.698842e+001
6.055482e+002;9.690393e+001
6.074766e+002;9.677894e+001
6.094052e+002;9.663521e+001
6.113336e+002;9.651666e+001
6.132621e+002;9.643478e+001
6.151906e+002;9.637475e+001
6.171191e+002;9.628668e+001
6.190476e+002;9.621750e+001
6.209761e+002;9.615525e+001
6.229046e+002;9.606878e+001
6.248331e+002;9.601794e+001
6.267616e+002;9.601010e+001
6.286901e+002;9.596788e+001
6.306186e+002;9.592780e+001
6.325471e+002;9.588966e+001
6.344756e+002;9.584912e+001
6.364041e+002;9.582052e+001
6.383326e+002;9.578329e+001
6.402611e+002;9.574783e+001
6.421896e+002;9.572950e+001
6.441181e+002;9.574909e+001
6.460466e+002;9.576414e+001
6.479750e+002;9.578402e+001
6.499036e+002;9.582124e+001
6.518320e+002;9.584691e+001
6.537606e+002;9.586195e+001
6.556890e+002;9.592088e+001
6.576176e+002;9.600302e+001
6.595460e+002;9.608238e+001
6.614745e+002;9.616233e+001
6.634030e+002;9.624777e+001
6.653315e+002;9.633102e+001
6.672600e+002;9.641103e+001
6.691885e+002;9.650071e+001
6.711170e+002;9.661063e+001
6.730455e+002;9.672367e+001
6.749740e+002;9.682610e+001
6.769025e+002;9.691814e+001
6.788310e+002;9.702322e+001
6.807595e+002;9.713026e+001
6.826880e+002;9.722236e+001
6.846165e+002;9.732629e+001
6.865450e+002;9.744428e+001
6.884735e+002;9.755894e+001
6.904020e+002;9.764954e+001
6.923305e+002;9.771523e+001
6.942590e+002;9.779434e+001
6.961875e+002;9.787887e+001
6.981160e+002;9.796513e+001
7.000445e+002;9.804809e+001
7.019730e+002;9.812404e+001
7.039015e+002;9.820110e+001
7.058300e+002;9.826238e+001
7.077585e+002;9.832813e+001
7.096870e+002;9.842034e+001
7.116155e+002;9.850463e+001
7.135439e+002;9.858309e+001
7.154725e+002;9.865578e+001
7.174009e+002;9.870895e+001
7.193295e+002;9.873888e+001
7.212579e+002;9.878271e+001
7.231865e+002;9.884584e+001
7.251149e+002;9.891291e+001
7.270435e+002;9.896854e+001
7.289719e+002;9.899946e+001
7.309005e+002;9.903455e+001
7.328289e+002;9.906732e+001
7.347574e+002;9.910509e+001
7.366859e+002;9.916634e+001
7.386144e+002;9.922163e+001
7.405429e+002;9.924940e+001
7.424714e+002;9.925961e+001
7.443999e+002;9.927995e+001
7.463284e+002;9.928907e+001
7.482569e+002;9.930604e+001
7.501854e+002;9.933544e+001
7.521139e+002;9.935009e+001
7.540424e+002;9.933310e+001
7.559709e+002;9.930116e+001
7.578994e+002;9.926315e+001
7.598279e+002;9.921285e+001
7.617564e+002;9.914958e+001
7.636849e+002;9.908732e+001
7.656134e+002;9.901098e+001
7.675419e+002;9.890030e+001
7.694704e+002;9.876588e+001
7.713989e+002;9.863917e+001
7.733274e+002;9.851334e+001
7.752559e+002;9.838322e+001
7.771844e+002;9.826099e+001
7.791129e+002;9.813383e+001
7.810414e+002;9.799279e+001
7.829698e+002;9.787083e+001
7.848984e+002;9.778090e+001
7.868268e+002;9.770277e+001
7.887554e+002;9.766153e+001
7.906838e+002;9.765229e+001
7.926124e+002;9.765066e+001
7.945408e+002;9.768757e+001
7.964694e+002;9.774065e+001
7.983978e+002;9.780183e+001
8.003264e+002;9.787850e+001
8.022548e+002;9.796401e+001
8.041833e+002;9.805742e+001
8.061118e+002;9.814563e+001
8.080403e+002;9.820229e+001
8.099688e+002;9.824092e+001
8.118973e+002;9.826521e+001
8.138258e+002;9.825058e+001
8.157543e+002;9.823769e+001
8.176828e+002;9.822390e+001
8.196113e+002;9.817212e+001
8.215398e+002;9.813869e+001
8.234683e+002;9.815811e+001
8.253968e+002;9.817661e+001
8.273253e+002;9.820851e+001
8.292538e+002;9.824989e+001
8.311823e+002;9.828127e+001
8.331108e+002;9.832116e+001
8.350393e+002;9.835089e+001
8.369678e+002;9.836710e+001
8.388963e+002;9.838582e+001
8.408248e+002;9.838458e+001
8.427533e+002;9.835781e+001
8.446818e+002;9.835959e+001
8.466103e+002;9.835909e+001
8.485388e+002;9.834196e+001
8.504673e+002;9.835590e+001
8.523958e+002;9.837447e+001
8.543243e+002;9.839321e+001
8.562527e+002;9.842202e+001
8.581813e+002;9.842271e+001
8.601097e+002;9.843360e+001
8.620383e+002;9.845951e+001
8.639667e+002;9.845085e+001
8.658953e+002;9.846825e+001
8.678237e+002;9.851302e+001
8.697523e+002;9.853102e+001
8.716807e+002;9.856411e+001
8.736093e+002;9.859124e+001
8.755377e+002;9.860321e+001
8.774662e+002;9.863342e+001
8.793947e+002;9.864243e+001
8.813232e+002;9.863335e+001
8.832517e+002;9.864374e+001
8.851802e+002;9.862627e+001
8.871087e+002;9.860309e+001
8.890372e+002;9.861220e+001
8.909657e+002;9.860087e+001
8.928942e+002;9.860338e+001
8.948227e+002;9.865784e+001
8.967512e+002;9.868492e+001
8.986797e+002;9.871362e+001
9.006082e+002;9.876174e+001
9.025367e+002;9.876549e+001
9.044651e+002;9.876935e+001
9.063937e+002;9.878427e+001
9.083221e+002;9.876022e+001
9.102507e+002;9.874825e+001
9.121791e+002;9.873532e+001
9.141077e+002;9.868616e+001
9.160361e+002;9.867670e+001
9.179647e+002;9.866283e+001
9.198931e+002;9.861741e+001
9.218217e+002;9.860084e+001
9.237501e+002;9.856902e+001
9.256786e+002;9.852551e+001
9.276071e+002;9.851689e+001
9.295356e+002;9.847532e+001
9.314641e+002;9.844468e+001
9.333926e+002;9.844530e+001
9.353211e+002;9.841405e+001
9.372496e+002;9.837426e+001
9.391781e+002;9.833663e+001
9.411066e+002;9.826580e+001
9.430351e+002;9.820842e+001
9.449636e+002;9.815775e+001
9.468921e+002;9.806406e+001
9.488206e+002;9.796986e+001
9.507491e+002;9.787959e+001
9.526776e+002;9.777691e+001
9.546061e+002;9.767698e+001
9.565346e+002;9.756288e+001
9.584631e+002;9.743908e+001
9.603916e+002;9.733288e+001
9.623201e+002;9.720483e+001
9.642486e+002;9.707266e+001
9.661771e+002;9.698336e+001
9.681056e+002;9.688329e+001
9.700341e+002;9.680396e+001
9.719626e+002;9.676642e+001
9.738911e+002;9.670060e+001
9.758196e+002;9.664066e+001
9.777480e+002;9.660525e+001
9.796766e+002;9.654707e+001
9.816050e+002;9.650424e+001
9.835336e+002;9.646851e+001
9.854620e+002;9.639985e+001
9.873906e+002;9.634807e+001
9.893190e+002;9.629807e+001
9.912476e+002;9.622301e+001
9.931760e+002;9.617182e+001
9.951046e+002;9.611385e+001
9.970330e+002;9.604079e+001
9.989615e+002;9.600179e+001
1.000890e+003;9.595795e+001
1.002819e+003;9.590872e+001
1.004747e+003;9.588568e+001
1.006676e+003;9.585223e+001
1.008604e+003;9.582067e+001
1.010533e+003;9.582171e+001
1.012461e+003;9.580180e+001
1.014390e+003;9.578575e+001
1.016318e+003;9.578783e+001
1.018247e+003;9.578323e+001
1.020175e+003;9.579053e+001
1.022104e+003;9.580650e+001
1.024032e+003;9.581236e+001
1.025960e+003;9.583927e+001
1.027889e+003;9.587637e+001
1.029818e+003;9.589996e+001
1.031746e+003;9.595664e+001
1.033674e+003;9.600690e+001
1.035603e+003;9.603403e+001
1.037531e+003;9.608752e+001
1.039460e+003;9.614025e+001
1.041388e+003;9.619458e+001
1.043317e+003;9.627478e+001
1.045245e+003;9.634446e+001
1.047174e+003;9.640851e+001
1.049102e+003;9.648556e+001
1.051031e+003;9.654311e+001
1.052959e+003;9.661398e+001
1.054888e+003;9.670267e+001
1.056816e+003;9.677612e+001
1.058745e+003;9.685337e+001
1.060673e+003;9.694523e+001
1.062602e+003;9.702684e+001
1.064530e+003;9.711031e+001
1.066459e+003;9.719569e+001
1.068387e+003;9.727106e+001
1.070316e+003;9.736469e+001
1.072244e+003;9.745270e+001
1.074173e+003;9.752455e+001
1.076101e+003;9.761872e+001
1.078030e+003;9.771317e+001
1.079958e+003;9.778877e+001
1.081887e+003;9.787360e+001
1.083815e+003;9.795293e+001
1.085744e+003;9.802414e+001
1.087672e+003;9.810675e+001
1.089601e+003;9.817010e+001
1.091529e+003;9.824049e+001
1.093458e+003;9.832231e+001
1.095386e+003;9.839378e+001
1.097315e+003;9.846001e+001
1.099243e+003;9.853637e+001
1.101172e+003;9.859679e+001
1.103100e+003;9.866972e+001
1.105029e+003;9.874512e+001
1.106957e+003;9.880879e+001
1.108886e+003;9.889190e+001
1.110814e+003;9.897127e+001
1.112743e+003;9.904030e+001
1.114671e+003;9.913303e+001
1.116600e+003;9.922086e+001
1.118528e+003;9.929462e+001
1.120457e+003;9.938078e+001
1.122385e+003;9.946450e+001
1.124314e+003;9.954200e+001
1.126242e+003;9.962878e+001
1.128171e+003;9.969582e+001
1.130099e+003;9.975744e+001
1.132028e+003;9.984032e+001
1.133956e+003;9.989756e+001
1.135885e+003;9.995001e+001
1.137813e+003;1.000242e+002
1.139742e+003;1.000787e+002
1.141670e+003;1.001394e+002
1.143599e+003;1.002050e+002
1.145527e+003;1.002482e+002
1.147456e+003;1.003040e+002
1.149384e+003;1.003478e+002
1.151313e+003;1.003807e+002
1.153241e+003;1.004387e+002
1.155170e+003;1.004894e+002
1.157098e+003;1.005125e+002
1.159027e+003;1.005623e+002
1.160955e+003;1.006004e+002
1.162884e+003;1.006334e+002
1.164812e+003;1.006769e+002
1.166741e+003;1.007013e+002
1.168669e+003;1.007254e+002
1.170598e+003;1.007612e+002
1.172526e+003;1.007752e+002
1.174455e+003;1.007904e+002
1.176383e+003;1.008191e+002
1.178312e+003;1.008383e+002
1.180240e+003;1.008681e+002
1.182169e+003;1.008880e+002
1.184097e+003;1.008909e+002
1.186026e+003;1.009104e+002
1.187954e+003;1.009345e+002
1.189883e+003;1.009455e+002
1.191811e+003;1.009574e+002
1.193740e+003;1.009665e+002
1.195668e+003;1.009765e+002
1.197597e+003;1.009966e+002
1.199525e+003;1.009954e+002
1.201454e+003;1.009984e+002
1.203382e+003;1.010228e+002
1.205311e+003;1.010349e+002
1.207239e+003;1.010342e+002
1.209168e+003;1.010417e+002
1.211096e+003;1.010414e+002
1.213025e+003;1.010452e+002
1.214953e+003;1.010540e+002
1.216882e+003;1.010535e+002
1.218810e+003;1.010672e+002
1.220739e+003;1.010824e+002
1.222667e+003;1.010856e+002
1.224596e+003;1.010890e+002
1.226524e+003;1.010947e+002
1.228453e+003;1.010906e+002
1.230381e+003;1.010968e+002
1.232310e+003;1.011061e+002
1.234238e+003;1.011151e+002
1.236167e+003;1.011322e+002
1.238095e+003;1.011323e+002
1.240024e+003;1.011289e+002
1.241952e+003;1.011433e+002
1.243881e+003;1.011528e+002
1.245809e+003;1.011574e+002
1.247738e+003;1.011632e+002
1.249666e+003;1.011592e+002
1.251595e+003;1.011589e+002
1.253523e+003;1.011700e+002
1.255452e+003;1.011709e+002
1.257380e+003;1.011716e+002
1.259309e+003;1.011887e+002
1.261237e+003;1.011907e+002
1.263166e+003;1.011921e+002
1.265094e+003;1.011987e+002
1.267023e+003;1.011965e+002
1.268951e+003;1.011944e+002
1.270880e+003;1.012065e+002
1.272808e+003;1.012110e+002
1.274737e+003;1.012143e+002
1.276665e+003;1.012205e+002
1.278594e+003;1.012238e+002
1.280522e+003;1.012298e+002
1.282451e+003;1.012321e+002
1.284379e+003;1.012246e+002
1.286308e+003;1.012301e+002
1.288236e+003;1.012464e+002
1.290165e+003;1.012531e+002
1.292093e+003;1.012615e+002
1.294022e+003;1.012659e+002
1.295950e+003;1.012619e+002
1.297879e+003;1.012675e+002
1.299807e+003;1.012764e+002
1.301736e+003;1.012746e+002
1.303664e+003;1.012733e+002
1.305593e+003;1.012827e+002
1.307521e+003;1.012933e+002
1.309450e+003;1.012977e+002
1.311378e+003;1.013040e+002
1.313307e+003;1.013162e+002
1.315235e+003;1.013254e+002
1.317164e+003;1.013304e+002
1.319092e+003;1.013434e+002
1.321021e+003;1.013517e+002
1.322949e+003;1.013399e+002
1.324878e+003;1.013408e+002
1.326806e+003;1.013539e+002
1.328734e+003;1.013631e+002
1.330663e+003;1.013707e+002
1.332592e+003;1.013730e+002
1.334520e+003;1.013801e+002
1.336448e+003;1.013938e+002
1.338377e+003;1.013863e+002
1.340306e+003;1.013889e+002
1.342234e+003;1.014111e+002
1.344162e+003;1.014187e+002
1.346091e+003;1.014207e+002
1.348020e+003;1.014329e+002
1.349948e+003;1.014245e+002
1.351876e+003;1.014264e+002
1.353805e+003;1.014413e+002
1.355734e+003;1.014472e+002
1.357662e+003;1.014483e+002
1.359590e+003;1.014449e+002
1.361519e+003;1.014546e+002
1.363448e+003;1.014711e+002
1.365376e+003;1.014831e+002
1.367304e+003;1.014865e+002
1.369233e+003;1.014901e+002
1.371161e+003;1.015008e+002
1.373090e+003;1.015038e+002
1.375018e+003;1.015083e+002
1.376947e+003;1.015182e+002
1.378875e+003;1.015215e+002
1.380804e+003;1.015276e+002
1.382732e+003;1.015309e+002
1.384661e+003;1.015367e+002
1.386589e+003;1.015399e+002
1.388518e+003;1.015364e+002
1.390446e+003;1.015381e+002
1.392375e+003;1.015504e+002
1.394303e+003;1.015702e+002
1.396232e+003;1.015850e+002
1.398160e+003;1.015840e+002
1.400089e+003;1.015717e+002
1.402017e+003;1.015798e+002
1.403946e+003;1.015951e+002
1.405874e+003;1.015948e+002
1.407803e+003;1.015977e+002
1.409731e+003;1.016073e+002
1.411660e+003;1.016068e+002
1.413588e+003;1.016146e+002
1.415517e+003;1.016252e+002
1.417445e+003;1.016300e+002
1.419374e+003;1.016369e+002
1.421302e+003;1.016488e+002
1.423231e+003;1.016531e+002
1.425159e+003;1.016565e+002
1.427088e+003;1.016711e+002
1.429016e+003;1.016775e+002
1.430945e+003;1.016794e+002
1.432873e+003;1.016886e+002
1.434802e+003;1.017066e+002
1.436730e+003;1.017101e+002
1.438659e+003;1.016916e+002
1.440587e+003;1.016861e+002
1.442516e+003;1.017006e+002
1.444444e+003;1.017082e+002
1.446373e+003;1.017163e+002
1.448301e+003;1.017306e+002
1.450230e+003;1.017423e+002
1.452158e+003;1.017562e+002
1.454087e+003;1.017639e+002
1.456015e+003;1.017690e+002
1.457944e+003;1.017674e+002
1.459872e+003;1.017652e+002
1.461801e+003;1.017723e+002
1.463729e+003;1.017856e+002
1.465658e+003;1.017953e+002
1.467586e+003;1.017995e+002
1.469515e+003;1.018039e+002
1.471443e+003;1.018070e+002
1.473372e+003;1.018027e+002
1.475300e+003;1.018083e+002
1.477229e+003;1.018275e+002
1.479157e+003;1.018365e+002
1.481086e+003;1.018394e+002
1.483014e+003;1.018371e+002
1.484943e+003;1.018425e+002
1.486871e+003;1.018582e+002
1.488800e+003;1.018662e+002
1.490728e+003;1.018579e+002
1.492657e+003;1.018676e+002
1.494585e+003;1.018809e+002
1.496514e+003;1.018945e+002
1.498442e+003;1.019010e+002
1.500371e+003;1.019076e+002
1.502299e+003;1.019123e+002
1.504228e+003;1.019140e+002
1.506156e+003;1.019210e+002
1.508085e+003;1.019278e+002
1.510013e+003;1.019258e+002
1.511942e+003;1.019250e+002
1.513870e+003;1.019368e+002
1.515799e+003;1.019487e+002
1.517727e+003;1.019538e+002
1.519656e+003;1.019518e+002
1.521584e+003;1.019576e+002
1.523513e+003;1.019669e+002
1.525441e+003;1.019771e+002
1.527370e+003;1.019891e+002
1.529298e+003;1.019946e+002
1.531227e+003;1.019975e+002
1.533155e+003;1.020071e+002
1.535084e+003;1.020278e+002
1.537012e+003;1.020325e+002
1.538941e+003;1.020305e+002
1.540869e+003;1.020310e+002
1.542798e+003;1.020319e+002
1.544726e+003;1.020362e+002
1.546655e+003;1.020498e+002
1.548583e+003;1.020641e+002
1.550512e+003;1.020777e+002
1.552440e+003;1.020853e+002
1.554369e+003;1.020791e+002
1.556297e+003;1.020799e+002
1.558226e+003;1.020814e+002
1.560154e+003;1.020885e+002
1.562083e+003;1.021073e+002
1.564011e+003;1.021138e+002
1.565940e+003;1.021225e+002
1.567868e+003;1.021414e+002
1.569797e+003;1.021414e+002
1.571725e+003;1.021406e+002
1.573654e+003;1.021413e+002
1.575582e+003;1.021391e+002
1.577511e+003;1.021452e+002
1.579439e+003;1.021431e+002
1.581368e+003;1.021514e+002
1.583296e+003;1.021720e+002
1.585225e+003;1.021804e+002
1.587153e+003;1.021801e+002
1.589082e+003;1.021910e+002
1.591010e+003;1.021997e+002
1.592939e+003;1.022104e+002
1.594867e+003;1.022178e+002
1.596796e+003;1.022179e+002
1.598724e+003;1.022221e+002
1.600653e+003;1.022294e+002
1.602581e+003;1.022394e+002
1.604510e+003;1.022386e+002
1.606438e+003;1.022395e+002
1.608367e+003;1.022529e+002
1.610295e+003;1.022626e+002
1.612224e+003;1.022675e+002
1.614152e+003;1.022587e+002
1.616081e+003;1.022690e+002
1.618009e+003;1.022917e+002
1.619938e+003;1.023040e+002
1.621866e+003;1.023093e+002
1.623795e+003;1.023137e+002
1.625723e+003;1.023095e+002
1.627652e+003;1.023113e+002
1.629580e+003;1.023278e+002
1.631509e+003;1.023408e+002
1.633437e+003;1.023505e+002
1.635366e+003;1.023551e+002
1.637294e+003;1.023603e+002
1.639223e+003;1.023683e+002
1.641151e+003;1.023705e+002
1.643080e+003;1.023885e+002
1.645008e+003;1.024003e+002
1.646937e+003;1.024066e+002
1.648865e+003;1.024182e+002
1.650794e+003;1.024207e+002
1.652722e+003;1.024261e+002
1.654651e+003;1.024310e+002
1.656579e+003;1.024363e+002
1.658508e+003;1.024476e+002
1.660436e+003;1.024634e+002
1.662365e+003;1.024591e+002
1.664293e+003;1.024600e+002
1.666222e+003;1.024693e+002
1.668150e+003;1.024679e+002
1.670078e+003;1.024773e+002
1.672007e+003;1.024878e+002
1.673936e+003;1.024829e+002
1.675864e+003;1.024880e+002
1.677792e+003;1.025024e+002
1.679721e+003;1.025060e+002
1.681650e+003;1.025212e+002
1.683578e+003;1.025406e+002
1.685506e+003;1.025453e+002
1.687435e+003;1.025610e+002
1.689364e+003;1.025679e+002
1.691292e+003;1.025698e+002
1.693220e+003;1.025891e+002
1.695149e+003;1.026037e+002
1.697078e+003;1.026031e+002
1.699006e+003;1.026198e+002
1.700934e+003;1.026217e+002
1.702863e+003;1.026229e+002
1.704792e+003;1.026466e+002
1.706720e+003;1.026505e+002
1.708648e+003;1.026660e+002
1.710577e+003;1.026828e+002
1.712505e+003;1.026674e+002
1.714434e+003;1.026628e+002
1.716362e+003;1.026771e+002
1.718291e+003;1.027033e+002
1.720219e+003;1.027165e+002
1.722148e+003;1.027178e+002
1.724076e+003;1.027230e+002
1.726005e+003;1.027333e+002
1.727933e+003;1.027328e+002
1.729862e+003;1.027357e+002
1.731790e+003;1.027431e+002
1.733719e+003;1.027472e+002
1.735647e+003;1.027577e+002
1.737576e+003;1.027719e+002
1.739504e+003;1.027803e+002
1.741433e+003;1.027876e+002
1.743361e+003;1.027990e+002
1.745290e+003;1.028109e+002
1.747218e+003;1.028199e+002
1.749147e+003;1.028324e+002
1.751075e+003;1.028332e+002
1.753004e+003;1.028408e+002
1.754932e+003;1.028548e+002
1.756861e+003;1.028595e+002
1.758789e+003;1.028643e+002
1.760718e+003;1.028799e+002
1.762646e+003;1.028939e+002
1.764575e+003;1.029002e+002
1.766503e+003;1.029074e+002
1.768432e+003;1.029152e+002
1.770360e+003;1.029287e+002
1.772289e+003;1.029321e+002
1.774217e+003;1.029427e+002
1.776146e+003;1.029652e+002
1.778074e+003;1.029641e+002
1.780003e+003;1.029612e+002
1.781931e+003;1.029739e+002
1.783860e+003;1.029902e+002
1.785788e+003;1.029997e+002
1.787717e+003;1.030043e+002
1.789645e+003;1.030053e+002
1.791574e+003;1.030122e+002
1.793502e+003;1.030179e+002
1.795431e+003;1.030241e+002
1.797359e+003;1.030443e+002
1.799288e+003;1.030543e+002
1.801216e+003;1.030534e+002
1.803145e+003;1.030562e+002
1.805073e+003;1.030635e+002
1.807002e+003;1.030720e+002
1.808930e+003;1.030905e+002
1.810859e+003;1.030995e+002
1.812787e+003;1.030947e+002
1.814716e+003;1.031066e+002
1.816644e+003;1.031136e+002
1.818573e+003;1.031253e+002
1.820501e+003;1.031437e+002
1.822430e+003;1.031413e+002
1.824358e+003;1.031458e+002
1.826287e+003;1.031521e+002
1.828215e+003;1.031450e+002
1.830144e+003;1.031563e+002
1.832072e+003;1.031784e+002
1.834001e+003;1.031821e+002
1.835929e+003;1.031983e+002
1.837858e+003;1.032036e+002
1.839786e+003;1.032065e+002
1.841715e+003;1.032279e+002
1.843643e+003;1.032362e+002
1.845572e+003;1.032160e+002
1.847500e+003;1.032351e+002
1.849429e+003;1.032668e+002
1.851357e+003;1.032636e+002
1.853286e+003;1.032668e+002
1.855214e+003;1.032714e+002
1.857143e+003;1.032857e+002
1.859071e+003;1.033021e+002
1.861000e+003;1.032998e+002
1.862928e+003;1.033127e+002
1.864857e+003;1.033201e+002
1.866785e+003;1.033168e+002
1.868714e+003;1.033404e+002
1.870642e+003;1.033465e+002
1.872571e+003;1.033386e+002
1.874499e+003;1.033447e+002
1.876428e+003;1.033537e+002
1.878356e+003;1.033623e+002
1.880285e+003;1.033787e+002
1.882213e+003;1.033803e+002
1.884142e+003;1.033768e+002
1.886070e+003;1.033916e+002
1.887999e+003;1.033926e+002
1.889927e+003;1.034016e+002
1.891856e+003;1.034276e+002
1.893784e+003;1.034193e+002
1.895713e+003;1.034175e+002
1.897641e+003;1.034438e+002
1.899570e+003;1.034465e+002
1.901498e+003;1.034380e+002
1.903427e+003;1.034437e+002
1.905355e+003;1.034597e+002
1.907284e+003;1.034829e+002
1.909212e+003;1.034997e+002
1.911141e+003;1.034877e+002
1.913069e+003;1.034995e+002
1.914998e+003;1.035077e+002
1.916926e+003;1.034954e+002
1.918855e+003;1.035096e+002
1.920783e+003;1.035234e+002
1.922712e+003;1.035356e+002
1.924640e+003;1.035592e+002
1.926569e+003;1.035486e+002
1.928497e+003;1.035385e+002
1.930426e+003;1.035481e+002
1.932354e+003;1.035394e+002
1.934283e+003;1.035485e+002
1.936211e+003;1.035628e+002
1.938140e+003;1.035440e+002
1.940068e+003;1.035447e+002
1.941997e+003;1.035656e+002
1.943925e+003;1.035540e+002
1.945854e+003;1.035448e+002
1.947782e+003;1.035536e+002
1.949711e+003;1.035485e+002
1.951639e+003;1.035464e+002
1.953568e+003;1.035532e+002
1.955496e+003;1.035398e+002
1.957425e+003;1.035416e+002
1.959353e+003;1.035303e+002
1.961282e+003;1.035222e+002
1.963210e+003;1.035335e+002
1.965139e+003;1.035187e+002
1.967067e+003;1.035015e+002
1.968996e+003;1.035049e+002
1.970924e+003;1.035063e+002
1.972853e+003;1.035077e+002
1.974781e+003;1.035143e+002
1.976710e+003;1.034920e+002
1.978638e+003;1.034846e+002
1.980567e+003;1.034869e+002
1.982495e+003;1.034587e+002
1.984424e+003;1.034568e+002
1.986352e+003;1.034593e+002
1.988281e+003;1.034464e+002
1.990209e+003;1.034386e+002
1.992138e+003;1.034246e+002
1.994066e+003;1.034144e+002
1.995995e+003;1.034275e+002
1.997923e+003;1.034115e+002
1.999852e+003;1.033910e+002
2.001780e+003;1.034029e+002
2.003708e+003;1.033919e+002
2.005637e+003;1.033782e+002
2.007566e+003;1.033852e+002
2.009494e+003;1.033617e+002
2.011422e+003;1.033519e+002
2.013351e+003;1.033666e+002
2.015280e+003;1.033550e+002
2.017208e+003;1.033383e+002
2.019136e+003;1.033198e+002
2.021065e+003;1.032887e+002
2.022994e+003;1.033043e+002
2.024922e+003;1.033219e+002
2.026850e+003;1.032886e+002
2.028779e+003;1.032712e+002
2.030708e+003;1.032658e+002
2.032636e+003;1.032542e+002
2.034564e+003;1.032619e+002
2.036493e+003;1.032390e+002
2.038422e+003;1.031996e+002
2.040350e+003;1.031897e+002
2.042278e+003;1.031734e+002
2.044207e+003;1.031527e+002
2.046135e+003;1.031357e+002
2.048064e+003;1.030898e+002
2.049992e+003;1.030461e+002
2.051921e+003;1.030170e+002
2.053849e+003;1.029752e+002
2.055778e+003;1.029255e+002
2.057707e+003;1.029006e+002
2.059635e+003;1.028522e+002
2.061563e+003;1.028150e+002
2.063492e+003;1.027657e+002
2.065420e+003;1.027122e+002
2.067349e+003;1.026973e+002
2.069277e+003;1.026597e+002
2.071206e+003;1.026220e+002
2.073135e+003;1.026128e+002
2.075063e+003;1.025736e+002
2.076991e+003;1.025251e+002
2.078920e+003;1.025072e+002
2.080848e+003;1.025008e+002
2.082777e+003;1.024952e+002
2.084705e+003;1.024771e+002
2.086634e+003;1.024634e+002
2.088563e+003;1.024829e+002
2.090491e+003;1.024941e+002
2.092419e+003;1.024659e+002
2.094348e+003;1.024882e+002
2.096276e+003;1.025395e+002
2.098205e+003;1.025489e+002
2.100133e+003;1.025738e+002
2.102062e+003;1.026095e+002
2.103990e+003;1.026362e+002
2.105919e+003;1.026856e+002
2.107847e+003;1.027241e+002
2.109776e+003;1.027636e+002
2.111704e+003;1.028249e+002
2.113633e+003;1.028536e+002
2.115561e+003;1.028849e+002
2.117490e+003;1.029415e+002
2.119418e+003;1.029611e+002
2.121347e+003;1.029866e+002
2.123275e+003;1.030479e+002
2.125204e+003;1.031004e+002
2.127132e+003;1.031286e+002
2.129061e+003;1.031688e+002
2.130989e+003;1.032022e+002
2.132918e+003;1.032437e+002
2.134846e+003;1.032928e+002
2.136775e+003;1.033318e+002
2.138703e+003;1.033757e+002
2.140632e+003;1.034097e+002
2.142560e+003;1.034405e+002
2.144489e+003;1.034919e+002
2.146417e+003;1.035330e+002
2.148346e+003;1.035740e+002
2.150274e+003;1.036190e+002
2.152203e+003;1.036321e+002
2.154131e+003;1.036584e+002
2.156060e+003;1.037074e+002
2.157988e+003;1.037413e+002
2.159917e+003;1.037681e+002
2.161845e+003;1.038117e+002
2.163774e+003;1.038336e+002
2.165702e+003;1.038516e+002
2.167631e+003;1.038693e+002
2.169559e+003;1.038716e+002
2.171488e+003;1.039142e+002
2.173416e+003;1.039563e+002
2.175345e+003;1.039567e+002
2.177273e+003;1.039838e+002
2.179202e+003;1.040060e+002
2.181130e+003;1.040058e+002
2.183059e+003;1.040238e+002
2.184987e+003;1.040380e+002
2.186916e+003;1.040590e+002
2.188844e+003;1.040876e+002
2.190773e+003;1.040974e+002
2.192701e+003;1.041300e+002
2.194630e+003;1.041737e+002
2.196558e+003;1.041805e+002
2.198487e+003;1.041994e+002
2.200415e+003;1.042253e+002
2.202344e+003;1.042338e+002
2.204272e+003;1.042618e+002
2.206201e+003;1.042912e+002
2.208129e+003;1.042956e+002
2.210058e+003;1.043168e+002
2.211986e+003;1.043384e+002
2.213915e+003;1.043410e+002
2.215843e+003;1.043643e+002
2.217772e+003;1.043820e+002
2.219700e+003;1.044059e+002
2.221629e+003;1.044411e+002
2.223557e+003;1.044330e+002
2.225486e+003;1.044201e+002
2.227414e+003;1.044374e+002
2.229343e+003;1.044324e+002
2.231271e+003;1.044369e+002
2.233200e+003;1.044735e+002
2.235128e+003;1.044836e+002
2.237057e+003;1.044855e+002
2.238985e+003;1.045016e+002
2.240914e+003;1.045147e+002
2.242842e+003;1.045347e+002
2.244771e+003;1.045540e+002
2.246699e+003;1.045452e+002
2.248628e+003;1.045717e+002
2.250556e+003;1.046100e+002
2.252485e+003;1.046181e+002
2.254413e+003;1.046355e+002
2.256342e+003;1.046451e+002
2.258270e+003;1.046635e+002
2.260199e+003;1.046968e+002
2.262127e+003;1.047101e+002
2.264056e+003;1.047283e+002
2.265984e+003;1.047535e+002
2.267913e+003;1.047543e+002
2.269841e+003;1.047641e+002
2.271770e+003;1.048119e+002
2.273698e+003;1.048311e+002
2.275627e+003;1.048360e+002
2.277555e+003;1.048572e+002
2.279484e+003;1.048507e+002
2.281412e+003;1.048634e+002
2.283341e+003;1.048869e+002
2.285269e+003;1.048919e+002
2.287198e+003;1.049269e+002
2.289126e+003;1.049368e+002
2.291055e+003;1.049396e+002
2.292983e+003;1.049643e+002
2.294912e+003;1.049659e+002
2.296840e+003;1.049636e+002
2.298769e+003;1.049862e+002
2.300697e+003;1.049969e+002
2.302625e+003;1.049998e+002
2.304554e+003;1.050270e+002
2.306483e+003;1.050253e+002
2.308411e+003;1.050202e+002
2.310340e+003;1.050519e+002
2.312268e+003;1.050668e+002
2.314197e+003;1.050782e+002
2.316125e+003;1.050891e+002
2.318053e+003;1.050790e+002
2.319982e+003;1.050973e+002
2.321911e+003;1.051223e+002
2.323839e+003;1.051236e+002
2.325768e+003;1.051266e+002
2.327696e+003;1.051277e+002
2.329625e+003;1.051344e+002
2.331553e+003;1.051511e+002
2.333481e+003;1.051495e+002
2.335410e+003;1.051416e+002
2.337339e+003;1.051589e+002
2.339267e+003;1.051695e+002
2.341196e+003;1.051916e+002
2.343124e+003;1.052053e+002
2.345052e+003;1.051941e+002
2.346981e+003;1.051992e+002
2.348909e+003;1.052087e+002
2.350838e+003;1.052074e+002
2.352767e+003;1.052371e+002
2.354695e+003;1.052422e+002
2.356624e+003;1.052106e+002
2.358552e+003;1.052330e+002
2.360480e+003;1.052576e+002
2.362409e+003;1.052552e+002
2.364337e+003;1.052708e+002
2.366266e+003;1.052767e+002
2.368195e+003;1.052590e+002
2.370123e+003;1.052656e+002
2.372052e+003;1.052823e+002
2.373980e+003;1.052981e+002
2.375908e+003;1.053197e+002
2.377837e+003;1.053195e+002
2.379765e+003;1.053184e+002
2.381694e+003;1.053366e+002
2.383622e+003;1.053337e+002
2.385551e+003;1.053289e+002
2.387479e+003;1.053402e+002
2.389408e+003;1.053388e+002
2.391336e+003;1.053344e+002
2.393265e+003;1.053464e+002
2.395193e+003;1.053616e+002
2.397122e+003;1.054022e+002
2.399050e+003;1.054026e+002
2.400979e+003;1.053857e+002
2.402907e+003;1.054137e+002
2.404836e+003;1.054259e+002
2.406764e+003;1.054131e+002
2.408693e+003;1.054265e+002
2.410621e+003;1.054291e+002
2.412550e+003;1.054189e+002
2.414478e+003;1.054337e+002
2.416407e+003;1.054419e+002
2.418335e+003;1.054581e+002
2.420264e+003;1.054621e+002
2.422192e+003;1.054520e+002
2.424121e+003;1.054556e+002
2.426049e+003;1.054603e+002
2.427978e+003;1.054615e+002
2.429906e+003;1.054758e+002
2.431835e+003;1.054893e+002
2.433763e+003;1.054837e+002
2.435692e+003;1.054973e+002
2.437620e+003;1.055109e+002
2.439549e+003;1.055227e+002
2.441477e+003;1.055416e+002
2.443406e+003;1.055345e+002
2.445334e+003;1.055380e+002
2.447263e+003;1.055429e+002
2.449191e+003;1.055380e+002
2.451120e+003;1.055544e+002
2.453048e+003;1.055784e+002
2.454977e+003;1.055578e+002
2.456905e+003;1.055503e+002
2.458834e+003;1.055717e+002
2.460762e+003;1.055665e+002
2.462691e+003;1.055735e+002
2.464619e+003;1.055927e+002
2.466548e+003;1.056061e+002
2.468476e+003;1.056275e+002
2.470405e+003;1.056141e+002
2.472333e+003;1.055939e+002
2.474262e+003;1.056152e+002
2.476190e+003;1.056343e+002
2.478119e+003;1.056346e+002
2.480047e+003;1.056408e+002
2.481976e+003;1.056479e+002
2.483904e+003;1.056465e+002
2.485833e+003;1.056594e+002
2.487761e+003;1.056682e+002
2.489690e+003;1.056773e+002
2.491618e+003;1.056852e+002
2.493547e+003;1.056642e+002
2.495475e+003;1.056753e+002
2.497404e+003;1.056990e+002
2.499332e+003;1.056903e+002
2.501261e+003;1.056992e+002
2.503189e+003;1.057029e+002
2.505118e+003;1.057002e+002
2.507046e+003;1.057182e+002
2.508975e+003;1.057233e+002
2.510903e+003;1.057294e+002
2.512832e+003;1.057490e+002
2.514760e+003;1.057488e+002
2.516689e+003;1.057514e+002
2.518617e+003;1.057450e+002
2.520546e+003;1.057437e+002
2.522474e+003;1.057618e+002
2.524403e+003;1.057840e+002
2.526331e+003;1.057729e+002
2.528260e+003;1.057773e+002
2.530188e+003;1.058001e+002
2.532117e+003;1.058051e+002
2.534045e+003;1.058075e+002
2.535974e+003;1.057976e+002
2.537902e+003;1.057858e+002
2.539831e+003;1.058078e+002
2.541759e+003;1.058304e+002
2.543688e+003;1.058247e+002
2.545616e+003;1.058352e+002
2.547545e+003;1.058555e+002
2.549473e+003;1.058640e+002
2.551402e+003;1.058864e+002
2.553330e+003;1.058822e+002
2.555259e+003;1.058749e+002
2.557187e+003;1.058918e+002
2.559116e+003;1.058923e+002
2.561044e+003;1.058972e+002
2.562973e+003;1.059155e+002
2.564901e+003;1.059085e+002
2.566830e+003;1.059038e+002
2.568758e+003;1.059193e+002
2.570687e+003;1.059137e+002
2.572615e+003;1.059243e+002
2.574544e+003;1.059244e+002
2.576472e+003;1.059220e+002
2.578401e+003;1.059448e+002
2.580329e+003;1.059524e+002
2.582258e+003;1.059671e+002
2.584186e+003;1.059796e+002
2.586115e+003;1.059781e+002
2.588043e+003;1.059828e+002
2.589972e+003;1.059813e+002
2.591900e+003;1.059791e+002
2.593829e+003;1.059864e+002
2.595757e+003;1.060103e+002
2.597686e+003;1.060220e+002
2.599614e+003;1.060258e+002
2.601543e+003;1.060349e+002
2.603471e+003;1.060219e+002
2.605400e+003;1.060154e+002
2.607328e+003;1.060304e+002
2.609257e+003;1.060286e+002
2.611185e+003;1.060575e+002
2.613114e+003;1.060748e+002
2.615042e+003;1.060718e+002
2.616971e+003;1.060862e+002
2.618899e+003;1.060928e+002
2.620828e+003;1.060973e+002
2.622756e+003;1.060965e+002
2.624685e+003;1.060791e+002
2.626613e+003;1.060857e+002
2.628542e+003;1.061020e+002
2.630470e+003;1.060995e+002
2.632398e+003;1.061182e+002
2.634327e+003;1.061284e+002
2.636256e+003;1.061336e+002
2.638184e+003;1.061505e+002
2.640113e+003;1.061543e+002
2.642041e+003;1.061527e+002
2.643969e+003;1.061584e+002
2.645898e+003;1.061636e+002
2.647826e+003;1.061516e+002
2.649755e+003;1.061635e+002
2.651684e+003;1.061717e+002
2.653612e+003;1.061711e+002
2.655541e+003;1.061849e+002
2.657469e+003;1.061999e+002
2.659397e+003;1.062076e+002
2.661326e+003;1.062048e+002
2.663254e+003;1.062026e+002
2.665183e+003;1.062036e+002
2.667112e+003;1.061985e+002
2.669040e+003;1.061889e+002
2.670969e+003;1.062184e+002
2.672897e+003;1.062582e+002
2.674825e+003;1.062600e+002
2.676754e+003;1.062473e+002
2.678682e+003;1.062352e+002
2.680611e+003;1.062367e+002
2.682540e+003;1.062659e+002
2.684468e+003;1.062895e+002
2.686396e+003;1.062818e+002
2.688325e+003;1.062775e+002
2.690253e+003;1.062872e+002
2.692182e+003;1.063107e+002
2.694110e+003;1.063130e+002
2.696039e+003;1.062964e+002
2.697968e+003;1.062870e+002
2.699896e+003;1.063087e+002
2.701824e+003;1.063145e+002
2.703753e+003;1.063169e+002
2.705681e+003;1.063199e+002
2.707610e+003;1.063229e+002
2.709538e+003;1.063392e+002
2.711467e+003;1.063409e+002
2.713396e+003;1.063407e+002
2.715324e+003;1.063555e+002
2.717252e+003;1.063681e+002
2.719181e+003;1.063824e+002
2.721109e+003;1.063925e+002
2.723038e+003;1.063779e+002
2.724966e+003;1.063711e+002
2.726895e+003;1.063808e+002
2.728823e+003;1.063867e+002
2.730752e+003;1.064006e+002
2.732680e+003;1.064096e+002
2.734609e+003;1.064150e+002
2.736537e+003;1.064329e+002
2.738466e+003;1.064314e+002
2.740394e+003;1.064116e+002
2.742323e+003;1.064256e+002
2.744251e+003;1.064529e+002
2.746180e+003;1.064431e+002
2.748108e+003;1.064303e+002
2.750037e+003;1.064526e+002
2.751965e+003;1.064679e+002
2.753894e+003;1.064899e+002
2.755822e+003;1.064999e+002
2.757751e+003;1.064863e+002
2.759679e+003;1.064837e+002
2.761608e+003;1.064999e+002
2.763536e+003;1.065054e+002
2.765465e+003;1.065094e+002
2.767393e+003;1.065170e+002
2.769322e+003;1.065204e+002
2.771250e+003;1.065299e+002
2.773179e+003;1.065400e+002
2.775107e+003;1.065311e+002
2.777036e+003;1.065366e+002
2.778964e+003;1.065363e+002
2.780893e+003;1.065345e+002
2.782821e+003;1.065560e+002
2.784750e+003;1.065736e+002
2.786678e+003;1.065954e+002
2.788607e+003;1.065980e+002
2.790535e+003;1.066048e+002
2.792464e+003;1.065962e+002
2.794392e+003;1.065775e+002
2.796321e+003;1.065864e+002
2.798249e+003;1.066062e+002
2.800178e+003;1.066039e+002
2.802106e+003;1.066096e+002
2.804035e+003;1.066257e+002
2.805963e+003;1.066262e+002
2.807892e+003;1.066397e+002
2.809820e+003;1.066497e+002
2.811749e+003;1.066538e+002
2.813677e+003;1.066671e+002
2.815606e+003;1.066759e+002
2.817534e+003;1.066744e+002
2.819463e+003;1.066814e+002
2.821391e+003;1.066945e+002
2.823320e+003;1.067066e+002
2.825248e+003;1.067210e+002
2.827177e+003;1.067231e+002
2.829105e+003;1.067182e+002
2.831034e+003;1.067123e+002
2.832962e+003;1.067122e+002
2.834891e+003;1.067350e+002
2.836819e+003;1.067619e+002
2.838748e+003;1.067585e+002
2.840676e+003;1.067502e+002
2.842605e+003;1.067661e+002
2.844533e+003;1.067802e+002
2.846462e+003;1.067787e+002
2.848390e+003;1.067778e+002
2.850319e+003;1.067729e+002
2.852247e+003;1.067841e+002
2.854176e+003;1.068036e+002
2.856104e+003;1.068006e+002
2.858033e+003;1.067939e+002
2.859961e+003;1.067851e+002
2.861890e+003;1.068027e+002
2.863818e+003;1.068234e+002
2.865747e+003;1.068225e+002
2.867675e+003;1.068303e+002
2.869604e+003;1.068572e+002
2.871532e+003;1.068629e+002
2.873461e+003;1.068532e+002
2.875389e+003;1.068625e+002
2.877318e+003;1.068693e+002
2.879246e+003;1.068693e+002
2.881175e+003;1.068777e+002
2.883103e+003;1.068867e+002
2.885032e+003;1.068833e+002
2.886960e+003;1.068928e+002
2.888889e+003;1.068997e+002
2.890817e+003;1.068840e+002
2.892746e+003;1.068951e+002
2.894674e+003;1.068975e+002
2.896603e+003;1.069120e+002
2.898531e+003;1.069254e+002
2.900460e+003;1.069178e+002
2.902388e+003;1.069383e+002
2.904317e+003;1.069659e+002
2.906245e+003;1.069797e+002
2.908174e+003;1.069704e+002
2.910102e+003;1.069781e+002
2.912031e+003;1.069891e+002
2.913959e+003;1.069903e+002
2.915888e+003;1.069803e+002
2.917816e+003;1.069818e+002
2.919745e+003;1.070002e+002
2.921673e+003;1.069971e+002
2.923602e+003;1.069892e+002
2.925530e+003;1.070176e+002
2.927458e+003;1.070425e+002
2.929387e+003;1.070462e+002
2.931316e+003;1.070437e+002
2.933244e+003;1.070348e+002
2.935173e+003;1.070688e+002
2.937101e+003;1.070832e+002
2.939030e+003;1.070622e+002
2.940958e+003;1.070538e+002
2.942886e+003;1.070746e+002
2.944815e+003;1.070854e+002
2.946744e+003;1.070949e+002
2.948672e+003;1.070955e+002
2.950601e+003;1.070900e+002
2.952529e+003;1.071086e+002
2.954458e+003;1.070996e+002
2.956386e+003;1.071017e+002
2.958314e+003;1.071079e+002
2.960243e+003;1.071139e+002
2.962172e+003;1.071421e+002
2.964100e+003;1.071386e+002
2.966029e+003;1.071413e+002
2.967957e+003;1.071675e+002
2.969885e+003;1.071777e+002
2.971814e+003;1.071746e+002
2.973742e+003;1.071800e+002
2.975671e+003;1.071811e+002
2.977600e+003;1.071807e+002
2.979528e+003;1.071873e+002
2.981457e+003;1.071896e+002
2.983385e+003;1.072002e+002
2.985313e+003;1.072171e+002
2.987242e+003;1.072216e+002
2.989170e+003;1.072136e+002
2.991099e+003;1.072152e+002
2.993028e+003;1.072263e+002
2.994956e+003;1.072391e+002
2.996885e+003;1.072497e+002
2.998813e+003;1.072497e+002
3.000741e+003;1.072636e+002
3.002670e+003;1.072697e+002
3.004598e+003;1.072666e+002
3.006527e+003;1.072513e+002
3.008456e+003;1.072584e+002
3.010384e+003;1.072800e+002
3.012313e+003;1.072828e+002
3.014241e+003;1.072793e+002
3.016169e+003;1.072857e+002
3.018098e+003;1.073066e+002
3.020026e+003;1.073264e+002
3.021955e+003;1.073232e+002
3.023884e+003;1.073256e+002
3.025812e+003;1.073205e+002
3.027740e+003;1.073197e+002
3.029669e+003;1.073441e+002
3.031597e+003;1.073530e+002
3.033526e+003;1.073701e+002
3.035454e+003;1.073869e+002
3.037383e+003;1.073773e+002
3.039312e+003;1.073703e+002
3.041240e+003;1.073750e+002
3.043168e+003;1.073878e+002
3.045097e+003;1.073921e+002
3.047025e+003;1.074088e+002
3.048954e+003;1.074139e+002
3.050882e+003;1.074163e+002
3.052811e+003;1.074117e+002
3.054740e+003;1.074126e+002
3.056668e+003;1.074342e+002
3.058596e+003;1.074566e+002
3.060525e+003;1.074547e+002
3.062453e+003;1.074594e+002
3.064382e+003;1.074733e+002
3.066310e+003;1.074727e+002
3.068239e+003;1.074722e+002
3.070167e+003;1.074786e+002
3.072096e+003;1.074829e+002
3.074024e+003;1.074939e+002
3.075953e+003;1.074944e+002
3.077881e+003;1.074956e+002
3.079810e+003;1.074950e+002
3.081738e+003;1.074941e+002
3.083667e+003;1.075134e+002
3.085595e+003;1.075287e+002
3.087524e+003;1.075283e+002
3.089452e+003;1.075150e+002
3.091381e+003;1.075221e+002
3.093309e+003;1.075503e+002
3.095238e+003;1.075595e+002
3.097166e+003;1.075645e+002
3.099095e+003;1.075637e+002
3.101023e+003;1.075775e+002
3.102952e+003;1.075892e+002
3.104880e+003;1.075790e+002
3.106809e+003;1.075768e+002
3.108737e+003;1.075750e+002
3.110666e+003;1.075888e+002
3.112594e+003;1.076019e+002
3.114523e+003;1.075958e+002
3.116451e+003;1.076101e+002
3.118380e+003;1.076315e+002
3.120308e+003;1.076399e+002
3.122237e+003;1.076479e+002
3.124165e+003;1.076612e+002
3.126094e+003;1.076711e+002
3.128022e+003;1.076885e+002
3.129951e+003;1.076911e+002
3.131879e+003;1.076840e+002
3.133808e+003;1.076864e+002
3.135736e+003;1.076944e+002
3.137665e+003;1.077024e+002
3.139593e+003;1.077038e+002
3.141522e+003;1.077034e+002
3.143450e+003;1.077142e+002
3.145379e+003;1.077266e+002
3.147307e+003;1.077322e+002
3.149236e+003;1.077495e+002
3.151164e+003;1.077559e+002
3.153093e+003;1.077524e+002
3.155021e+003;1.077619e+002
3.156950e+003;1.077672e+002
3.158878e+003;1.077484e+002
3.160807e+003;1.077383e+002
3.162735e+003;1.077600e+002
3.164664e+003;1.077935e+002
3.166592e+003;1.077926e+002
3.168521e+003;1.077797e+002
3.170449e+003;1.077834e+002
3.172378e+003;1.077833e+002
3.174306e+003;1.077940e+002
3.176235e+003;1.078197e+002
3.178163e+003;1.078396e+002
3.180092e+003;1.078450e+002
3.182020e+003;1.078497e+002
3.183949e+003;1.078633e+002
3.185877e+003;1.078684e+002
3.187806e+003;1.078737e+002
3.189734e+003;1.078776e+002
3.191663e+003;1.078785e+002
3.193591e+003;1.078819e+002
3.195520e+003;1.078935e+002
3.197448e+003;1.078989e+002
3.199377e+003;1.078887e+002
3.201305e+003;1.078950e+002
3.203234e+003;1.079117e+002
3.205162e+003;1.079135e+002
3.207091e+003;1.079116e+002
3.209019e+003;1.079311e+002
3.210948e+003;1.079534e+002
3.212876e+003;1.079487e+002
3.214805e+003;1.079471e+002
3.216733e+003;1.079752e+002
3.218662e+003;1.079762e+002
3.220590e+003;1.079692e+002
3.222519e+003;1.079783e+002
3.224447e+003;1.079956e+002
3.226376e+003;1.079917e+002
3.228304e+003;1.079916e+002
3.230233e+003;1.080096e+002
3.232161e+003;1.080197e+002
3.234090e+003;1.080162e+002
3.236018e+003;1.079987e+002
3.237947e+003;1.079930e+002
3.239875e+003;1.080128e+002
3.241804e+003;1.080283e+002
3.243732e+003;1.080519e+002
3.245661e+003;1.080590e+002
3.247589e+003;1.080473e+002
3.249518e+003;1.080627e+002
3.251446e+003;1.080828e+002
3.253375e+003;1.080761e+002
3.255303e+003;1.080717e+002
3.257232e+003;1.080899e+002
3.259160e+003;1.081109e+002
3.261089e+003;1.081125e+002
3.263017e+003;1.081043e+002
3.264946e+003;1.081142e+002
3.266874e+003;1.081268e+002
3.268802e+003;1.081291e+002
3.270731e+003;1.081527e+002
3.272660e+003;1.081594e+002
3.274588e+003;1.081488e+002
3.276517e+003;1.081426e+002
3.278445e+003;1.081568e+002
3.280374e+003;1.081823e+002
3.282302e+003;1.081958e+002
3.284230e+003;1.081917e+002
3.286159e+003;1.081784e+002
3.288088e+003;1.081885e+002
3.290016e+003;1.082115e+002
3.291945e+003;1.082084e+002
3.293873e+003;1.081999e+002
3.295802e+003;1.082140e+002
3.297730e+003;1.082100e+002
3.299658e+003;1.082180e+002
3.301587e+003;1.082346e+002
3.303516e+003;1.082371e+002
3.305444e+003;1.082537e+002
3.307373e+003;1.082493e+002
3.309301e+003;1.082331e+002
3.311229e+003;1.082436e+002
3.313158e+003;1.082876e+002
3.315086e+003;1.082885e+002
3.317015e+003;1.082928e+002
3.318944e+003;1.083066e+002
3.320872e+003;1.083076e+002
3.322801e+003;1.083092e+002
3.324729e+003;1.083022e+002
3.326657e+003;1.082997e+002
3.328586e+003;1.083032e+002
3.330514e+003;1.083404e+002
3.332443e+003;1.083480e+002
3.334372e+003;1.083325e+002
3.336300e+003;1.083328e+002
3.338229e+003;1.083399e+002
3.340157e+003;1.083502e+002
3.342085e+003;1.083827e+002
3.344014e+003;1.083822e+002
3.345942e+003;1.083678e+002
3.347871e+003;1.083914e+002
3.349800e+003;1.084067e+002
3.351728e+003;1.084137e+002
3.353656e+003;1.084222e+002
3.355585e+003;1.084334e+002
3.357513e+003;1.084429e+002
3.359442e+003;1.084425e+002
3.361370e+003;1.084308e+002
3.363299e+003;1.084400e+002
3.365228e+003;1.084480e+002
3.367156e+003;1.084440e+002
3.369084e+003;1.084250e+002
3.371013e+003;1.084385e+002
3.372941e+003;1.084641e+002
3.374870e+003;1.084785e+002
3.376798e+003;1.084751e+002
3.378727e+003;1.084721e+002
3.380656e+003;1.084878e+002
3.382584e+003;1.085013e+002
3.384512e+003;1.084940e+002
3.386441e+003;1.084975e+002
3.388369e+003;1.085040e+002
3.390298e+003;1.085075e+002
3.392226e+003;1.085214e+002
3.394155e+003;1.085165e+002
3.396083e+003;1.085211e+002
3.398012e+003;1.085428e+002
3.399940e+003;1.085631e+002
3.401869e+003;1.085616e+002
3.403797e+003;1.085553e+002
3.405726e+003;1.085504e+002
3.407654e+003;1.085509e+002
3.409583e+003;1.085541e+002
3.411511e+003;1.085725e+002
3.413440e+003;1.086030e+002
3.415368e+003;1.086053e+002
3.417297e+003;1.085989e+002
3.419225e+003;1.086009e+002
3.421154e+003;1.085930e+002
3.423082e+003;1.085985e+002
3.425011e+003;1.086082e+002
3.426939e+003;1.086292e+002
3.428868e+003;1.086524e+002
3.430796e+003;1.086607e+002
3.432725e+003;1.086579e+002
3.434653e+003;1.086684e+002
3.436582e+003;1.086740e+002
3.438510e+003;1.086814e+002
3.440439e+003;1.086807e+002
3.442367e+003;1.086740e+002
3.444296e+003;1.086750e+002
3.446224e+003;1.086582e+002
3.448153e+003;1.086760e+002
3.450081e+003;1.086977e+002
3.452010e+003;1.087004e+002
3.453938e+003;1.087063e+002
3.455867e+003;1.087252e+002
3.457795e+003;1.087229e+002
3.459724e+003;1.087427e+002
3.461652e+003;1.087458e+002
3.463581e+003;1.087529e+002
3.465509e+003;1.087834e+002
3.467438e+003;1.087858e+002
3.469366e+003;1.087723e+002
3.471295e+003;1.087789e+002
3.473223e+003;1.088004e+002
3.475152e+003;1.087929e+002
3.477080e+003;1.087597e+002
3.479009e+003;1.087523e+002
3.480937e+003;1.087734e+002
3.482866e+003;1.087942e+002
3.484794e+003;1.088036e+002
3.486723e+003;1.088245e+002
3.488651e+003;1.088528e+002
3.490580e+003;1.088680e+002
3.492508e+003;1.088369e+002
3.494437e+003;1.088391e+002
3.496365e+003;1.088683e+002
3.498294e+003;1.088919e+002
3.500222e+003;1.088977e+002
3.502151e+003;1.088885e+002
3.504079e+003;1.088866e+002
3.506008e+003;1.088668e+002
3.507936e+003;1.088630e+002
3.509865e+003;1.088680e+002
3.511793e+003;1.088814e+002
3.513722e+003;1.088986e+002
3.515650e+003;1.089036e+002
3.517579e+003;1.089201e+002
3.519507e+003;1.089253e+002
3.521436e+003;1.089221e+002
3.523364e+003;1.089507e+002
3.525293e+003;1.089598e+002
3.527221e+003;1.089749e+002
3.529150e+003;1.089934e+002
3.531078e+003;1.089968e+002
3.533007e+003;1.089848e+002
3.534935e+003;1.089651e+002
3.536864e+003;1.089519e+002
3.538792e+003;1.089850e+002
3.540721e+003;1.090194e+002
3.542649e+003;1.090363e+002
3.544578e+003;1.090387e+002
3.546506e+003;1.090510e+002
3.548435e+003;1.090546e+002
3.550363e+003;1.090368e+002
3.552292e+003;1.090466e+002
3.554220e+003;1.090586e+002
3.556149e+003;1.090690e+002
3.558077e+003;1.090625e+002
3.560006e+003;1.090502e+002
3.561934e+003;1.090361e+002
3.563863e+003;1.090322e+002
3.565791e+003;1.090638e+002
3.567720e+003;1.090715e+002
3.569648e+003;1.090596e+002
3.571577e+003;1.090811e+002
3.573505e+003;1.090996e+002
3.575434e+003;1.091239e+002
3.577362e+003;1.091406e+002
3.579291e+003;1.091310e+002
3.581219e+003;1.091063e+002
3.583148e+003;1.091127e+002
3.585076e+003;1.091529e+002
3.587005e+003;1.091570e+002
3.588933e+003;1.091534e+002
3.590862e+003;1.091595e+002
3.592790e+003;1.091471e+002
3.594719e+003;1.091631e+002
3.596647e+003;1.091953e+002
3.598576e+003;1.091811e+002
3.600504e+003;1.091576e+002
3.602433e+003;1.091636e+002
3.604361e+003;1.091712e+002
3.606290e+003;1.092000e+002
3.608218e+003;1.091850e+002
3.610146e+003;1.091667e+002
3.612075e+003;1.092124e+002
3.614004e+003;1.092334e+002
3.615932e+003;1.092151e+002
3.617861e+003;1.092424e+002
3.619789e+003;1.092785e+002
3.621718e+003;1.092823e+002
3.623646e+003;1.092870e+002
3.625574e+003;1.093040e+002
3.627503e+003;1.093168e+002
3.629432e+003;1.093268e+002
3.631360e+003;1.093199e+002
3.633289e+003;1.093273e+002
3.635217e+003;1.093088e+002
3.637146e+003;1.092977e+002
3.639074e+003;1.092953e+002
3.641002e+003;1.093219e+002
3.642931e+003;1.093260e+002
3.644860e+003;1.093168e+002
3.646788e+003;1.093391e+002
3.648717e+003;1.093399e+002
3.650645e+003;1.093464e+002
3.652573e+003;1.093600e+002
3.654502e+003;1.093509e+002
3.656430e+003;1.093594e+002
3.658359e+003;1.093739e+002
3.660288e+003;1.094121e+002
3.662216e+003;1.094319e+002
3.664145e+003;1.094201e+002
3.666073e+003;1.094102e+002
3.668001e+003;1.094074e+002
3.669930e+003;1.094175e+002
3.671858e+003;1.094192e+002
3.673787e+003;1.093984e+002
3.675716e+003;1.094241e+002
3.677644e+003;1.094636e+002
3.679573e+003;1.094677e+002
3.681501e+003;1.094675e+002
3.683429e+003;1.094825e+002
3.685358e+003;1.094770e+002
3.687286e+003;1.094585e+002
3.689215e+003;1.094422e+002
3.691144e+003;1.094597e+002
3.693072e+003;1.095071e+002
3.695000e+003;1.095129e+002
3.696929e+003;1.095096e+002
3.698857e+003;1.095098e+002
3.700786e+003;1.095179e+002
3.702714e+003;1.095248e+002
3.704643e+003;1.095287e+002
3.706572e+003;1.095324e+002
3.708500e+003;1.095169e+002
3.710428e+003;1.095272e+002
3.712357e+003;1.095216e+002
3.714285e+003;1.095223e+002
3.716214e+003;1.095481e+002
3.718142e+003;1.095588e+002
3.720071e+003;1.095817e+002
3.722000e+003;1.095893e+002
3.723928e+003;1.095609e+002
3.725856e+003;1.095815e+002
3.727785e+003;1.096042e+002
3.729713e+003;1.096177e+002
3.731642e+003;1.096308e+002
3.733570e+003;1.096166e+002
3.735499e+003;1.095966e+002
3.737427e+003;1.096073e+002
3.739356e+003;1.096307e+002
3.741284e+003;1.096431e+002
3.743213e+003;1.096327e+002
3.745141e+003;1.096372e+002
3.747070e+003;1.096546e+002
3.748998e+003;1.096916e+002
3.750927e+003;1.096961e+002
3.752855e+003;1.096517e+002
3.754784e+003;1.096439e+002
3.756712e+003;1.096792e+002
3.758641e+003;1.097138e+002
3.760569e+003;1.097117e+002
3.762498e+003;1.097071e+002
3.764426e+003;1.097051e+002
3.766355e+003;1.097532e+002
3.768283e+003;1.097266e+002
3.770212e+003;1.096981e+002
3.772140e+003;1.097282e+002
3.774069e+003;1.097491e+002
3.775997e+003;1.097590e+002
3.777926e+003;1.097755e+002
3.779854e+003;1.097794e+002
3.781783e+003;1.097936e+002
3.783711e+003;1.097743e+002
3.785640e+003;1.097519e+002
3.787568e+003;1.097504e+002
3.789497e+003;1.097681e+002
3.791425e+003;1.098201e+002
3.793354e+003;1.098168e+002
3.795282e+003;1.097927e+002
3.797211e+003;1.098158e+002
3.799139e+003;1.098308e+002
3.801068e+003;1.098608e+002
3.802996e+003;1.098563e+002
3.804925e+003;1.098475e+002
3.806853e+003;1.098500e+002
3.808782e+003;1.098421e+002
3.810710e+003;1.098446e+002
3.812639e+003;1.098455e+002
3.814567e+003;1.098723e+002
3.816496e+003;1.098727e+002
3.818424e+003;1.098601e+002
3.820353e+003;1.098613e+002
3.822281e+003;1.098950e+002
3.824210e+003;1.099056e+002
3.826138e+003;1.099016e+002
3.828067e+003;1.098966e+002
3.829995e+003;1.098955e+002
3.831924e+003;1.099078e+002
3.833852e+003;1.099186e+002
3.835781e+003;1.099201e+002
3.837709e+003;1.099286e+002
3.839638e+003;1.099273e+002
3.841566e+003;1.099404e+002
3.843495e+003;1.099660e+002
3.845423e+003;1.099624e+002
3.847352e+003;1.099665e+002
3.849280e+003;1.099740e+002
3.851209e+003;1.099594e+002
3.853137e+003;1.099757e+002
3.855066e+003;1.099806e+002
3.856994e+003;1.099861e+002
3.858923e+003;1.100050e+002
3.860851e+003;1.100069e+002
3.862780e+003;1.100185e+002
3.864708e+003;1.100168e+002
3.866637e+003;1.100172e+002
3.868565e+003;1.100193e+002
3.870494e+003;1.100153e+002
3.872422e+003;1.100453e+002
3.874351e+003;1.100756e+002
3.876279e+003;1.100946e+002
3.878208e+003;1.100559e+002
3.880136e+003;1.100352e+002
3.882065e+003;1.100850e+002
3.883993e+003;1.100886e+002
3.885922e+003;1.100779e+002
3.887850e+003;1.101081e+002
3.889779e+003;1.101084e+002
3.891707e+003;1.101113e+002
3.893636e+003;1.101242e+002
3.895564e+003;1.101402e+002
3.897493e+003;1.101481e+002
3.899421e+003;1.101497e+002
3.901350e+003;1.101422e+002
3.903278e+003;1.101446e+002
3.905207e+003;1.101489e+002
3.907135e+003;1.101338e+002
3.909064e+003;1.101345e+002
3.910992e+003;1.101501e+002
3.912921e+003;1.101636e+002
3.914849e+003;1.101893e+002
3.916778e+003;1.101659e+002
3.918706e+003;1.101460e+002
3.920635e+003;1.101595e+002
3.922563e+003;1.101624e+002
3.924492e+003;1.101596e+002
3.926420e+003;1.101713e+002
3.928349e+003;1.101582e+002
3.930277e+003;1.101881e+002
3.932206e+003;1.102198e+002
3.934134e+003;1.102553e+002
3.936063e+003;1.102615e+002
3.937991e+003;1.102398e+002
3.939920e+003;1.102305e+002
3.941848e+003;1.102611e+002
3.943777e+003;1.102892e+002
3.945705e+003;1.103148e+002
3.947634e+003;1.103161e+002
3.949562e+003;1.102798e+002
3.951490e+003;1.102188e+002
3.953419e+003;1.102389e+002
3.955348e+003;1.102709e+002
3.957276e+003;1.102882e+002
3.959205e+003;1.102811e+002
3.961133e+003;1.102956e+002
3.963062e+003;1.102971e+002
3.964990e+003;1.103006e+002
3.966918e+003;1.103394e+002
3.968847e+003;1.103562e+002
3.970776e+003;1.103359e+002
3.972704e+003;1.103539e+002
3.974633e+003;1.103689e+002
3.976561e+003;1.103622e+002
3.978490e+003;1.103475e+002
3.980418e+003;1.103534e+002
3.982346e+003;1.103859e+002
3.984275e+003;1.103823e+002
3.986204e+003;1.103723e+002
3.988132e+003;1.104139e+002
3.990061e+003;1.104334e+002
3.991989e+003;1.104243e+002
3.993917e+003;1.104258e+002
3.995846e+003;1.104184e+002
3.997774e+003;1.104187e+002
3.999703e+003;1.104500e+002
4.001632e+003;0.000000e+000
