399.1989,2.721812
401.1274,2.895377
403.0559,3.079294
404.9844,3.260882
406.9129,3.462137
408.8414,3.65335
410.7699,3.827117
412.6984,4.025344
414.6269,4.240117
416.5554,4.429705
418.4839,4.621325
420.4124,4.812634
422.3409,4.993556
424.2694,5.168703
426.1979,5.344764
428.1264,5.508185
430.0549,5.682988
431.9834,5.845619
433.9119,6.014559
435.8404,6.157067
437.7689,6.298059
439.6974,6.444531
441.6259,6.581387
443.5544,6.71456
445.4829,6.841291
447.4114,6.949823
449.3399,7.053865
451.2684,7.141388
453.1969,7.238637
455.1254,7.333917
457.0539,7.415958
458.9824,7.483508
460.9109,7.566032
462.8394,7.649533
464.7679,7.726064
466.6964,7.809646
468.6248,7.909452
470.5533,8.014987
472.4818,8.131975
474.4103,8.263018
476.3388,8.405354
478.2673,8.555047
480.1958,8.725861
482.1243,8.887355
484.0528,9.052094
485.9813,9.219648
487.9098,9.391209
489.8383,9.558123
491.7668,9.731503
493.6953,9.900661
495.6238,10.06586
497.5523,10.22498
499.4808,10.37582
501.4093,10.52139
503.3378,10.66937
505.2663,10.79392
507.1948,10.91523
509.1233,11.03247
511.0518,11.14747
512.9803,11.25338
514.9088,11.34927
516.8373,11.43973
518.7657,11.54764
520.6943,11.66092
522.6227,11.77285
524.5513,11.88432
526.4797,12.005
528.4083,12.136
530.3367,12.2689
532.2653,12.39918
534.1937,12.52975
536.1223,12.65037
538.0507,12.77118
539.9792,12.8909
541.9077,13.01402
543.8362,13.14699
545.7647,13.287
547.6932,13.41533
549.6217,13.54185
551.5502,13.67053
553.4787,13.80896
555.4072,13.94713
557.3357,14.09277
559.2642,14.23786
561.1927,14.38727
563.1212,14.54628
565.0497,14.709
566.9782,14.8672
568.9067,15.03015
570.8352,15.19281
572.7637,15.3642
574.6922,15.53535
576.6207,15.70425
578.5492,15.87623
580.4777,16.04575
582.4062,16.21209
584.3347,16.38157
586.2632,16.54836
588.1917,16.72256
590.1202,16.89706
592.0486,17.0715
593.9772,17.25166
595.9056,17.44595
597.8342,17.62727
599.7626,17.81132
601.6912,17.9943
603.6196,18.17025
605.5482,18.34793
607.4766,18.51892
609.4052,18.68599
611.3336,18.84989
613.2621,19.0137
615.1906,19.1767
617.1191,19.32323
619.0476,19.46524
620.9761,19.61378
622.9046,19.76266
624.8331,19.90486
626.7616,20.04151
628.6901,20.18638
630.6186,20.34213
632.5471,20.49114
634.4756,20.63145
636.4041,20.76418
638.3326,20.9046
640.2611,21.04026
642.1896,21.17113
644.1181,21.295
646.0466,21.40945
647.9751,21.52877
649.9036,21.66588
651.8321,21.79244
653.7606,21.90713
655.6891,22.01356
657.6176,22.11731
659.5461,22.22046
661.4745,22.3214
663.4031,22.41932
665.3315,22.50891
667.2601,22.57905
669.1885,22.68443
671.1171,22.80143
673.0455,22.90279
674.9741,23.00485
676.9025,23.11241
678.8311,23.21869
680.7595,23.3196
682.688,23.41767
684.6165,23.51975
686.545,23.6193
688.4735,23.71894
690.402,23.81659
692.3305,23.91701
694.259,24.01893
696.1875,24.11722
698.116,24.20563
700.0445,24.2937
701.973,24.38242
703.9015,24.46457
705.83,24.53897
707.7585,24.61526
709.687,24.69214
711.6155,24.76275
713.544,24.82623
715.4725,24.88839
717.401,24.95091
719.3295,25.01037
721.258,25.06293
723.1865,25.11681
725.115,25.17073
727.0435,25.22592
728.972,25.27851
730.9005,25.33158
732.829,25.38765
734.7574,25.44333
736.686,25.49859
738.6144,25.5584
740.543,25.62089
742.4714,25.68819
744.4,25.75583
746.3284,25.82228
748.257,25.89125
750.1854,25.96055
752.114,26.02759
754.0424,26.10148
755.9709,26.17771
757.8994,26.24663
759.8279,26.31162
761.7564,26.38045
763.6849,26.44991
765.6134,26.51689
767.5419,26.57592
769.4704,26.63209
771.3989,26.68589
773.3274,26.73755
775.2559,26.78246
777.1844,26.82819
779.1129,26.86994
781.0414,26.907
782.9699,26.94133
784.8984,26.97058
786.8269,26.98695
788.7554,26.99954
790.6839,27.01088
792.6124,27.02226
794.5409,27.04052
796.4694,27.06801
798.3979,27.10097
800.3264,27.14647
802.2549,27.20187
804.1833,27.26372
806.1119,27.32899
808.0403,27.40115
809.9689,27.4758
811.8973,27.5498
813.8259,27.62396
815.7543,27.6978
817.6829,27.76535
819.6113,27.83377
821.5399,27.90052
823.4683,27.97529
825.3969,28.05842
827.3253,28.14074
829.2538,28.21833
831.1823,28.29405
833.1108,28.36382
835.0393,28.43189
836.9678,28.50023
838.8963,28.56854
840.8248,28.63662
842.7533,28.70497
844.6818,28.77617
846.6103,28.84973
848.5388,28.91899
850.4673,28.98577
852.3958,29.04901
854.3243,29.10793
856.2528,29.16219
858.1813,29.21396
860.1098,29.26705
862.0383,29.32397
863.9668,29.38256
865.8953,29.45285
867.8238,29.53726
869.7523,29.62773
871.6808,29.7195
873.6093,29.8136
875.5378,29.90375
877.4662,29.99527
879.3948,30.09052
881.3232,30.18606
883.2518,30.27768
885.1802,30.36781
887.1088,30.45831
889.0372,30.54995
890.9658,30.64042
892.8942,30.73572
894.8227,30.8345
896.7512,30.93646
898.6797,31.04091
900.6082,31.148
902.5367,31.25973
904.4652,31.37769
906.3937,31.49425
908.3222,31.61305
910.2507,31.73495
912.1792,31.85666
914.1077,31.97509
916.0362,32.09675
917.9647,32.2208
919.8932,32.34665
921.8217,32.47494
923.7502,32.61071
925.6786,32.75221
927.6072,32.89706
929.5356,33.03791
931.4642,33.17751
933.3926,33.31331
935.3212,33.4453
937.2496,33.57015
939.1782,33.69134
941.1066,33.81208
943.0352,33.93251
944.9636,34.04741
946.8922,34.15829
948.8206,34.26663
950.7491,34.37649
952.6776,34.48366
954.6061,34.58273
956.5346,34.67165
958.4631,34.75202
960.3916,34.82846
962.3201,34.91327
964.2486,35.01091
966.1771,35.124
968.1056,35.2459
970.0341,35.36242
971.9626,35.46585
973.8911,35.56487
975.8196,35.66678
977.7481,35.76819
979.6766,35.85268
981.6051,35.92005
983.5336,35.97208
985.4621,36.01554
987.3906,36.05217
989.3191,36.08804
991.2476,36.12373
993.1761,36.16181
995.1046,36.20395
997.0331,36.25154
998.9615,36.29443
1000.89,36.32726
1002.819,36.34396
1004.747,36.34197
1006.676,36.31726
1008.604,36.27687
1010.533,36.22297
1012.461,36.16056
1014.39,36.09595
1016.318,36.03795
1018.247,35.98953
1020.175,35.95695
1022.104,35.93744
1024.032,35.92692
1025.961,35.92014
1027.889,35.91571
1029.818,35.9072
1031.746,35.8953
1033.675,35.87771
1035.603,35.85385
1037.531,35.82156
1039.46,35.78449
1041.389,35.73987
1043.317,35.69174
1045.245,35.64261
1047.174,35.59394
1049.103,35.54268
1051.031,35.49289
1052.959,35.44163
1054.888,35.39071
1056.817,35.33897
1058.745,35.28834
1060.673,35.23854
1062.602,35.19286
1064.531,35.14873
1066.459,35.10672
1068.387,35.06772
1070.316,35.03462
1072.245,34.99883
1074.173,34.96859
1076.101,34.96893
1078.03,34.99713
1079.958,35.04539
1081.887,35.16627
1083.815,35.33045
1085.744,35.47249
1087.672,35.58489
1089.601,35.68425
1091.529,35.77744
1093.458,35.87103
1095.386,35.96763
1097.315,36.07348
1099.243,36.18647
1101.172,36.30671
1103.1,36.43375
1105.029,36.56921
1106.957,36.7091
1108.886,36.85614
1110.814,37.00624
1112.743,37.15942
1114.671,37.31349
1116.6,37.46936
1118.528,37.62193
1120.457,37.7741
1122.385,37.92364
1124.314,38.07058
1126.242,38.21056
1128.171,38.34858
1130.099,38.48293
1132.028,38.6159
1133.956,38.74535
1135.885,38.87128
1137.813,38.98018
1139.742,39.06208
1141.67,39.13361
1143.599,39.24204
1145.527,39.36218
1147.456,39.45892
1149.384,39.54771
1151.313,39.70651
1153.241,39.94118
1155.17,40.16864
1157.098,40.35882
1159.027,40.52991
1160.955,40.68719
1162.884,40.83577
1164.812,40.97885
1166.741,41.13136
1168.669,41.28067
1170.598,41.41844
1172.526,41.54279
1174.455,41.65522
1176.383,41.71304
1178.312,41.65532
1180.24,41.60827
1182.169,41.90535
1184.097,42.33997
1186.026,42.60704
1187.954,42.78622
1189.883,42.93916
1191.811,43.0816
1193.74,43.21535
1195.668,43.34581
1197.597,43.47581
1199.525,43.60719
1201.454,43.73269
1203.382,43.85378
1205.311,43.97222
1207.239,44.08826
1209.168,44.20062
1211.096,44.31168
1213.025,44.42211
1214.953,44.53391
1216.882,44.64688
1218.81,44.75958
1220.739,44.87148
1222.667,44.98365
1224.596,45.09495
1226.524,45.20641
1228.453,45.31931
1230.381,45.43335
1232.31,45.54734
1234.238,45.66211
1236.167,45.77643
1238.095,45.88757
1240.024,45.99625
1241.952,46.1007
1243.881,46.1977
1245.809,46.29008
1247.738,46.37957
1249.666,46.4612
1251.595,46.53128
1253.523,46.58094
1255.452,46.59937
1257.38,46.59143
1259.309,46.57947
1261.237,46.59726
1263.166,46.67511
1265.094,46.81605
1267.023,47.00257
1268.951,47.20074
1270.88,47.37344
1272.808,47.5126
1274.737,47.63056
1276.665,47.73409
1278.594,47.82329
1280.522,47.89953
1282.451,47.9692
1284.379,48.03308
1286.308,48.09308
1288.236,48.15224
1290.165,48.21191
1292.093,48.26846
1294.022,48.32268
1295.95,48.37484
1297.879,48.42674
1299.807,48.47853
1301.736,48.52883
1303.664,48.57804
1305.593,48.62968
1307.521,48.68265
1309.45,48.7342
1311.378,48.78265
1313.307,48.82973
1315.235,48.87433
1317.164,48.91409
1319.092,48.95246
1321.021,48.99239
1322.949,49.03105
1324.878,49.06834
1326.806,49.10427
1328.735,49.14066
1330.663,49.17387
1332.592,49.20462
1334.52,49.23556
1336.449,49.26316
1338.377,49.28729
1340.306,49.31736
1342.234,49.3521
1344.163,49.37599
1346.091,49.39178
1348.02,49.40704
1349.948,49.42594
1351.877,49.44942
1353.805,49.47451
1355.734,49.50077
1357.662,49.52723
1359.591,49.54638
1361.519,49.55642
1363.448,49.57819
1365.376,49.61308
1367.305,49.6328
1369.233,49.64766
1371.161,49.66109
1373.09,49.65998
1375.019,49.66703
1376.947,49.68761
1378.875,49.6982
1380.804,49.69753
1382.733,49.68146
1384.661,49.68777
1386.589,49.72216
1388.518,49.78508
1390.447,49.84362
1392.375,49.8569
1394.303,49.85025
1396.232,49.87581
1398.161,49.898
1400.089,49.92986
1402.017,49.97408
1403.946,49.99326
1405.875,50.02294
1407.803,50.06194
1409.731,50.08989
1411.66,50.11527
1413.589,50.14196
1415.517,50.15824
1417.445,50.13848
1419.374,50.13197
1421.302,50.21119
1423.231,50.25982
1425.159,50.28667
1427.088,50.31018
1429.016,50.31213
1430.945,50.32484
1432.873,50.341
1434.802,50.30495
1436.73,50.26392
1438.659,50.32038
1440.587,50.35421
1442.516,50.35429
1444.444,50.34958
1446.373,50.33304
1448.301,50.32051
1450.23,50.33041
1452.158,50.32249
1454.087,50.27904
1456.015,50.1604
1457.944,50.16817
1459.872,50.27813
1461.801,50.31909
1463.729,50.30178
1465.658,50.31392
1467.586,50.36667
1469.515,50.38129
1471.443,50.34995
1473.372,50.3688
1475.3,50.44812
1477.229,50.5031
1479.157,50.54464
1481.086,50.5588
1483.014,50.57938
1484.943,50.58414
1486.871,50.57124
1488.8,50.55711
1490.728,50.57495
1492.657,50.61995
1494.585,50.59846
1496.514,50.56066
1498.442,50.59898
1500.371,50.64122
1502.299,50.65812
1504.228,50.56608
1506.156,50.4486
1508.085,50.51576
1510.013,50.62112
1511.942,50.63927
1513.87,50.64639
1515.799,50.62106
1517.727,50.60872
1519.656,50.56187
1521.584,50.52404
1523.513,50.59195
1525.441,50.61631
1527.37,50.6363
1529.298,50.66114
1531.227,50.65172
1533.155,50.6144
1535.084,50.64101
1537.012,50.60437
1538.941,50.46373
1540.869,50.46563
1542.798,50.56158
1544.726,50.6207
1546.655,50.66593
1548.583,50.67911
1550.512,50.67617
1552.44,50.65874
1554.369,50.62223
1556.297,50.57043
1558.226,50.42937
1560.154,50.46756
1562.083,50.6399
1564.011,50.68917
1565.94,50.68894
1567.868,50.66313
1569.797,50.63438
1571.725,50.67399
1573.654,50.65092
1575.582,50.54697
1577.511,50.58648
1579.439,50.66784
1581.368,50.66672
1583.296,50.66164
1585.225,50.65222
1587.153,50.64621
1589.082,50.63329
1591.01,50.62542
1592.939,50.61234
1594.867,50.6017
1596.796,50.59041
1598.724,50.58047
1600.653,50.561
1602.581,50.54241
1604.51,50.51672
1606.438,50.47935
1608.367,50.42712
1610.295,50.39
1612.224,50.36224
1614.152,50.28796
1616.081,50.12226
1618.009,50.05445
1619.938,50.07357
1621.866,50.10506
1623.795,50.17891
1625.723,50.26287
1627.652,50.29558
1629.58,50.31978
1631.509,50.33191
1633.437,50.27159
1635.366,50.19175
1637.294,50.25129
1639.223,50.31715
1641.151,50.32514
1643.08,50.30702
1645.008,50.22802
1646.937,50.20047
1648.865,50.25616
1650.794,50.16329
1652.722,49.98837
1654.651,50.10716
1656.579,50.2605
1658.508,50.27869
1660.436,50.25645
1662.365,50.22081
1664.293,50.23475
1666.222,50.2401
1668.15,50.18486
1670.079,50.16405
1672.007,50.19228
1673.936,50.16277
1675.864,50.14706
1677.793,50.19308
1679.721,50.18797
1681.65,50.13465
1683.578,49.993
1685.507,50.01211
1687.435,50.13892
1689.364,50.16067
1691.292,50.16513
1693.221,50.12129
1695.149,49.99236
1697.078,49.99665
1699.006,49.97044
1700.935,49.94925
1702.863,50.05891
1704.792,50.05478
1706.72,50.05747
1708.649,50.06187
1710.577,50.05778
1712.505,50.02076
1714.434,49.95596
1716.363,49.84869
1718.291,49.83343
1720.219,49.90168
1722.148,49.90298
1724.077,49.86365
1726.005,49.82853
1727.933,49.77635
1729.862,49.72032
1731.791,49.61917
1733.719,49.50825
1735.647,49.57153
1737.576,49.65227
1739.505,49.66035
1741.433,49.7239
1743.361,49.78471
1745.29,49.83487
1747.219,49.85841
1749.147,49.8618
1751.075,49.86201
1753.004,49.92175
1754.932,49.94797
1756.861,49.94324
1758.789,49.95355
1760.718,49.93538
1762.646,49.93361
1764.575,49.96032
1766.503,49.93763
1768.432,49.91616
1770.36,49.8878
1772.289,49.84542
1774.217,49.8849
1776.146,49.92181
1778.074,49.91665
1780.003,49.90309
1781.931,49.89619
1783.86,49.88509
1785.788,49.87764
1787.717,49.8825
1789.645,49.85387
1791.574,49.80661
1793.502,49.80757
1795.431,49.83818
1797.359,49.8293
1799.288,49.81075
1801.216,49.79584
1803.145,49.80072
1805.073,49.79657
1807.002,49.78688
1808.93,49.76709
1810.859,49.75452
1812.787,49.74646
1814.716,49.74073
1816.644,49.72304
1818.573,49.71181
1820.501,49.69589
1822.43,49.67746
1824.358,49.64236
1826.287,49.63017
1828.215,49.6058
1830.144,49.57915
1832.072,49.5807
1834.001,49.57367
1835.929,49.54961
1837.858,49.5297
1839.786,49.50901
1841.715,49.47018
1843.643,49.40621
1845.572,49.4033
1847.5,49.40934
1849.429,49.39231
1851.357,49.37018
1853.286,49.34617
1855.214,49.31983
1857.143,49.29499
1859.071,49.26851
1861,49.244
1862.928,49.21842
1864.857,49.19138
1866.785,49.14984
1868.714,49.11082
1870.642,49.10128
1872.571,49.09581
1874.499,49.07259
1876.428,49.05038
1878.356,49.02531
1880.285,49.0037
1882.213,48.97939
1884.142,48.95731
1886.07,48.93323
1887.999,48.90502
1889.927,48.87828
1891.856,48.86832
1893.784,48.84647
1895.713,48.8257
1897.641,48.8066
1899.57,48.7896
1901.498,48.7675
1903.427,48.7481
1905.355,48.72584
1907.284,48.70494
1909.212,48.68037
1911.141,48.66386
1913.069,48.64466
1914.998,48.62275
1916.926,48.58624
1918.855,48.56763
1920.783,48.55662
1922.712,48.53561
1924.64,48.51836
1926.569,48.50215
1928.497,48.48035
1930.426,48.46012
1932.354,48.43765
1934.283,48.41782
1936.211,48.39549
1938.14,48.37418
1940.068,48.34743
1941.997,48.31893
1943.925,48.29857
1945.854,48.28267
1947.782,48.26045
1949.711,48.23902
1951.639,48.21529
1953.568,48.19366
1955.496,48.16676
1957.425,48.13476
1959.353,48.10746
1961.282,48.09491
1963.21,48.07332
1965.139,48.04927
1967.067,48.02104
1968.996,48.00168
1970.924,47.97868
1972.853,47.955
1974.781,47.92865
1976.71,47.90588
1978.638,47.87895
1980.567,47.8551
1982.495,47.82918
1984.424,47.80559
1986.352,47.77797
1988.281,47.75281
1990.209,47.72271
1992.138,47.69611
1994.066,47.67306
1995.995,47.65096
1997.923,47.62401
1999.852,47.59916
2001.78,47.57175
2003.709,47.54726
2005.637,47.52011
2007.566,47.49577
2009.494,47.4685
2011.423,47.44416
2013.351,47.41739
2015.28,47.39098
2017.208,47.36258
2019.137,47.34094
2021.065,47.3152
2022.994,47.29099
2024.922,47.26511
2026.851,47.24004
2028.779,47.2124
2030.708,47.19178
2032.636,47.16742
2034.565,47.14491
2036.493,47.11898
2038.422,47.09526
2040.35,47.06939
2042.279,47.04711
2044.207,47.02233
2046.135,47.00091
2048.064,46.97667
2049.992,46.95414
2051.921,46.93044
2053.85,46.90926
2055.778,46.88529
2057.707,46.86435
2059.635,46.83978
2061.563,46.81956
2063.492,46.79519
2065.42,46.77424
2067.349,46.75257
2069.278,46.73264
2071.206,46.70969
2073.135,46.68859
2075.063,46.66607
2076.991,46.64489
2078.92,46.62333
2080.848,46.60218
2082.777,46.57914
2084.706,46.55931
2086.634,46.53471
2088.563,46.51546
2090.491,46.49097
2092.419,46.47192
2094.348,46.4466
2096.276,46.42873
2098.205,46.40332
2100.134,46.38395
2102.062,46.36021
2103.99,46.33871
2105.919,46.31556
2107.847,46.29322
2109.776,46.27064
2111.704,46.24802
2113.633,46.22646
2115.562,46.20247
2117.49,46.1824
2119.418,46.15921
2121.347,46.13725
2123.275,46.11526
2125.204,46.09421
2127.132,46.07164
2129.061,46.04969
2130.99,46.02811
2132.918,46.00481
2134.846,45.98394
2136.775,45.96041
2138.703,45.93955
2140.632,45.91588
2142.56,45.89433
2144.489,45.86864
2146.417,45.84455
2148.346,45.81739
2150.274,45.79329
2152.203,45.76735
2154.131,45.74275
2156.06,45.71733
2157.988,45.69317
2159.917,45.66665
2161.845,45.64271
2163.774,45.61621
2165.702,45.5915
2167.631,45.5657
2169.559,45.54074
2171.488,45.51417
2173.416,45.49063
2175.345,45.46355
2177.273,45.4389
2179.202,45.41314
2181.13,45.38826
2183.059,45.36211
2184.987,45.3389
2186.916,45.31178
2188.844,45.28828
2190.773,45.26321
2192.701,45.23879
2194.63,45.21339
2196.558,45.18979
2198.487,45.16257
2200.415,45.13987
2202.344,45.11452
2204.272,45.08945
2206.201,45.06354
2208.129,45.03919
2210.058,45.01106
2211.986,44.98661
2213.915,44.959
2215.843,44.93359
2217.772,44.9068
2219.7,44.88064
2221.629,44.8524
2223.557,44.82746
2225.486,44.79806
2227.414,44.77161
2229.343,44.74394
2231.271,44.71639
2233.2,44.68724
2235.128,44.66109
2237.057,44.63058
2238.985,44.60342
2240.914,44.57382
2242.842,44.54493
2244.771,44.51518
2246.699,44.48708
2248.628,44.45555
2250.556,44.42858
2252.485,44.39736
2254.413,44.36711
2256.342,44.33655
2258.27,44.30698
2260.199,44.27399
2262.127,44.2452
2264.056,44.21244
2265.984,44.18163
2267.913,44.14985
2269.841,44.11815
2271.77,44.08464
2273.698,44.05488
2275.627,44.02
2277.555,43.98917
2279.484,43.95704
2281.412,43.92392
2283.341,43.88942
2285.269,43.85834
2287.198,43.8222
2289.126,43.78927
2291.055,43.75466
2292.983,43.7206
2294.912,43.68557
2296.84,43.65267
2298.769,43.61554
2300.697,43.58321
2302.626,43.54748
2304.554,43.51179
2306.483,43.47607
2308.411,43.44096
2310.34,43.40056
2312.268,43.36563
2314.197,43.3269
2316.125,43.28799
2318.054,43.24835
2319.982,43.20956
2321.911,43.1671
2323.839,43.12972
2325.768,43.0892
2327.696,43.05086
2329.625,43.01303
2331.553,42.97779
2333.482,42.94453
2335.41,42.91788
2337.339,42.88816
2339.267,42.86466
2341.196,42.8455
2343.124,42.83289
2345.053,42.82618
2346.981,42.8283
2348.91,42.81178
2350.838,42.76526
2352.767,42.69911
2354.695,42.63522
2356.624,42.57806
2358.552,42.53129
2360.481,42.48936
2362.409,42.46371
2364.338,42.44532
2366.266,42.43569
2368.195,42.43421
2370.123,42.44009
2372.052,42.44393
2373.98,42.45317
2375.908,42.45731
2377.837,42.45981
2379.766,42.46063
2381.694,42.45927
2383.623,42.45193
2385.551,42.448
2387.479,42.43629
2389.408,42.42465
2391.336,42.41215
2393.265,42.39636
2395.194,42.37503
2397.122,42.35711
2399.051,42.33057
2400.979,42.30423
2402.907,42.27774
2404.836,42.25013
2406.764,42.22009
2408.693,42.19424
2410.622,42.1631
2412.55,42.13564
2414.479,42.1068
2416.407,42.07613
2418.335,42.04537
2420.264,42.01883
2422.192,41.9853
2424.121,41.95617
2426.05,41.9263
2427.978,41.89524
2429.906,41.86425
2431.835,41.83659
2433.763,41.80303
2435.692,41.77415
2437.62,41.74294
2439.549,41.71125
2441.478,41.68018
2443.406,41.65085
2445.334,41.61602
2447.263,41.5875
2449.191,41.55561
2451.12,41.52301
2453.048,41.49189
2454.977,41.46234
2456.906,41.42759
2458.834,41.39877
2460.762,41.36607
2462.691,41.33364
2464.619,41.30233
2466.548,41.272
2468.476,41.23758
2470.405,41.2091
2472.333,41.17571
2474.262,41.14371
2476.19,41.11353
2478.119,41.0822
2480.047,41.04751
2481.976,41.01954
2483.904,40.98582
2485.833,40.95404
2487.761,40.92375
2489.69,40.89265
2491.618,40.85871
2493.547,40.8306
2495.475,40.79689
2497.404,40.76612
2499.332,40.73608
2501.261,40.70454
2503.189,40.67216
2505.118,40.64486
2507.046,40.61031
2508.975,40.58078
2510.903,40.55204
2512.832,40.52034
2514.76,40.48813
2516.689,40.46138
2518.617,40.42768
2520.546,40.398
2522.474,40.36828
2524.403,40.33699
2526.331,40.30603
2528.26,40.27847
2530.188,40.24412
2532.117,40.21559
2534.045,40.18563
2535.974,40.15382
2537.902,40.12369
2539.831,40.09641
2541.759,40.06155
2543.688,40.03344
2545.616,40.00358
2547.545,39.97102
2549.473,39.94016
2551.402,39.9122
2553.33,39.87769
2555.259,39.84986
2557.187,39.81888
2559.116,39.78639
2561.044,39.75616
2562.973,39.72714
2564.901,39.692
2566.83,39.6645
2568.758,39.63301
2570.687,39.59971
2572.615,39.56985
2574.544,39.54063
2576.472,39.50483
2578.401,39.47692
2580.329,39.4451
2582.258,39.4123
2584.186,39.38177
2586.115,39.35121
2588.043,39.31591
2589.972,39.28823
2591.9,39.255
2593.829,39.22152
2595.757,39.19155
2597.686,39.16048
2599.614,39.12471
2601.543,39.09694
2603.471,39.06327
2605.4,39.02952
2607.328,38.9986
2609.257,38.96712
2611.185,38.9316
2613.114,38.90301
2615.042,38.8684
2616.971,38.83518
2618.899,38.80399
2620.828,38.77107
2622.756,38.73563
2624.685,38.70733
2626.613,38.67143
2628.542,38.63803
2630.47,38.60728
2632.399,38.57371
2634.327,38.53785
2636.256,38.50924
2638.184,38.47309
2640.113,38.43918
2642.041,38.40747
2643.97,38.3739
2645.898,38.33842
2647.827,38.30882
2649.755,38.27197
2651.684,38.23855
2653.612,38.20633
2655.541,38.1711
2657.469,38.13555
2659.398,38.1062
2661.326,38.0683
2663.255,38.03462
2665.183,38.00297
2667.112,37.96769
2669.04,37.93123
2670.969,37.90136
2672.897,37.86395
2674.826,37.83047
2676.754,37.79786
2678.683,37.76241
2680.611,37.72669
2682.54,37.69612
2684.468,37.65822
2686.397,37.62531
2688.325,37.59221
2690.254,37.55557
2692.182,37.51999
2694.111,37.48956
2696.039,37.45082
2697.968,37.4177
2699.896,37.38478
2701.825,37.34824
2703.753,37.3129
2705.682,37.28242
2707.61,37.2441
2709.539,37.21125
2711.467,37.17793
2713.396,37.14182
2715.324,37.10729
2717.253,37.07646
2719.181,37.03788
2721.11,37.00593
2723.038,36.97324
2724.967,36.937
2726.895,36.90306
2728.823,36.87304
2730.752,36.83466
2732.681,36.80295
2734.609,36.77095
2736.538,36.73572
2738.466,36.70231
2740.395,36.67257
2742.323,36.63522
2744.251,36.60459
2746.18,36.5722
2748.109,36.53682
2750.037,36.5043
2751.966,36.47477
2753.894,36.43668
2755.823,36.40618
2757.751,36.37436
2759.679,36.33876
2761.608,36.30578
2763.537,36.27614
2765.465,36.23857
2767.394,36.20814
2769.322,36.17609
2771.25,36.14024
2773.179,36.10573
2775.107,36.07471
2777.036,36.03823
2778.965,36.00875
2780.893,35.97571
2782.822,35.93959
2784.75,35.90664
2786.678,35.87567
2788.607,35.83694
2790.535,35.80611
2792.464,35.77301
2794.393,35.73662
2796.321,35.70325
2798.25,35.6724
2800.178,35.63354
2802.106,35.60172
2804.035,35.56786
2805.963,35.53148
2807.892,35.49759
2809.821,35.46523
2811.749,35.42561
2813.677,35.39344
2815.606,35.35812
2817.534,35.3199
2819.463,35.28464
2821.391,35.25044
2823.32,35.20863
2825.249,35.17534
2827.177,35.13946
2829.105,35.1001
2831.034,35.06248
2832.962,35.0257
2834.891,34.9808
2836.819,34.94207
2838.748,34.89878
2840.677,34.85081
2842.605,34.80329
2844.533,34.75454
2846.462,34.69671
2848.39,34.64622
2850.319,34.59306
2852.247,34.53865
2854.176,34.49093
2856.104,34.45013
2858.033,34.40709
2859.961,34.37514
2861.89,34.34233
2863.818,34.30727
2865.747,34.27364
2867.675,34.23973
2869.604,34.19689
2871.532,34.15977
2873.461,34.12133
2875.389,34.08443
2877.318,34.05347
2879.246,34.02505
2881.175,33.98972
2883.103,33.9603
2885.032,33.92484
2886.96,33.88496
2888.889,33.84719
2890.817,33.8096
2892.746,33.76352
2894.674,33.72349
2896.603,33.68015
2898.531,33.63402
2900.46,33.58981
2902.388,33.54626
2904.317,33.49555
2906.245,33.45186
2908.174,33.40499
2910.102,33.35511
2912.031,33.30643
2913.959,33.25728
2915.888,33.20017
2917.816,33.15023
2919.745,33.09735
2921.673,33.04276
2923.602,32.99456
2925.53,32.95335
2927.459,32.91112
2929.387,32.88164
2931.316,32.85343
2933.244,32.82615
2935.173,32.80371
2937.101,32.78437
2939.03,32.75941
2940.958,32.74134
2942.887,32.71826
2944.815,32.68938
2946.744,32.65868
2948.672,32.62451
2950.601,32.578
2952.529,32.53357
2954.458,32.48304
2956.386,32.42706
2958.315,32.37371
2960.243,32.32588
2962.172,32.27639
2964.1,32.24403
2966.029,32.22463
2967.957,32.21856
2969.886,32.22468
2971.814,32.23189
2973.743,32.22637
2975.671,32.22257
2977.6,32.21088
2979.528,32.19288
2981.457,32.17578
2983.385,32.1584
2985.314,32.1307
2987.242,32.10747
2989.171,32.08142
2991.099,32.0505
2993.028,32.01983
2994.956,31.99202
2996.885,31.95689
2998.813,31.9276
3000.742,31.8961
3002.67,31.86074
3004.599,31.82679
3006.527,31.79597
3008.456,31.75783
3010.384,31.72539
3012.313,31.69043
3014.241,31.65174
3016.17,31.61511
3018.098,31.58481
3020.027,31.5485
3021.955,31.516
3023.884,31.48151
3025.812,31.44353
3027.741,31.40745
3029.669,31.37503
3031.598,31.33537
3033.526,31.30176
3035.455,31.26743
3037.383,31.23003
3039.312,31.19381
3041.24,31.16111
3043.169,31.12085
3045.097,31.08656
3047.026,31.0511
3048.954,31.01236
3050.883,30.97586
3052.811,30.94294
3054.74,30.90148
3056.668,30.86491
3058.597,30.82944
3060.525,30.79111
3062.454,30.75286
3064.382,30.71841
3066.311,30.67626
3068.239,30.64007
3070.167,30.60456
3072.096,30.56544
3074.025,30.52652
3075.953,30.4913
3077.882,30.44962
3079.81,30.41287
3081.739,30.3761
3083.667,30.33607
3085.595,30.29565
3087.524,30.26144
3089.453,30.22008
3091.381,30.18189
3093.31,30.14409
3095.238,30.10324
3097.167,30.06323
3099.095,30.02791
3101.023,29.98518
3102.952,29.94636
3104.881,29.90896
3106.809,29.86926
3108.738,29.82861
3110.666,29.79273
3112.594,29.74957
3114.523,29.71124
3116.451,29.67476
3118.38,29.63486
3120.309,29.5938
3122.237,29.55838
3124.166,29.51707
3126.094,29.47875
3128.022,29.44213
3129.951,29.40281
3131.879,29.36158
3133.808,29.32693
3135.737,29.28596
3137.665,29.24742
3139.594,29.21024
3141.522,29.17093
3143.45,29.13037
3145.379,29.09537
3147.307,29.05368
3149.236,29.01496
3151.165,28.97856
3153.093,28.93941
3155.021,28.89805
3156.95,28.86333
3158.878,28.82238
3160.807,28.78301
3162.735,28.74603
3164.664,28.70747
3166.593,28.66616
3168.521,28.63118
3170.449,28.59089
3172.378,28.5519
3174.306,28.51455
3176.235,28.47538
3178.163,28.43402
3180.092,28.39927
3182.021,28.35836
3183.949,28.31857
3185.877,28.2816
3187.806,28.24325
3189.734,28.20125
3191.663,28.16577
3193.591,28.12456
3195.52,28.08321
3197.448,28.04438
3199.377,28.00527
3201.305,27.96201
3203.234,27.92527
3205.162,27.88439
3207.091,27.84492
3209.019,27.80861
3210.948,27.77301
3212.876,27.73419
3214.805,27.7018
3216.733,27.66485
3218.662,27.62704
3220.59,27.59194
3222.519,27.55645
3224.447,27.51578
3226.376,27.48195
3228.304,27.44388
3230.233,27.40478
3232.161,27.36842
3234.09,27.33231
3236.018,27.29093
3237.947,27.25617
3239.875,27.21763
3241.804,27.17815
3243.732,27.14082
3245.661,27.10432
3247.589,27.06336
3249.518,27.02851
3251.446,26.99028
3253.375,26.95053
3255.303,26.91367
3257.232,26.878
3259.16,26.83652
3261.089,26.80144
3263.017,26.76402
3264.946,26.72457
3266.874,26.68723
3268.803,26.65185
3270.731,26.61098
3272.66,26.57541
3274.588,26.53771
3276.517,26.49874
3278.445,26.46206
3280.374,26.42682
3282.302,26.38537
3284.231,26.35004
3286.159,26.31305
3288.088,26.27397
3290.016,26.23691
3291.945,26.20232
3293.873,26.16142
3295.802,26.126
3297.73,26.08977
3299.659,26.05132
3301.587,26.01406
3303.516,25.98031
3305.444,25.94039
3307.373,25.90508
3309.301,25.86923
3311.23,25.83141
3313.158,25.7947
3315.087,25.76181
3317.015,25.72223
3318.944,25.68698
3320.872,25.65206
3322.801,25.61498
3324.729,25.57837
3326.658,25.54619
3328.586,25.50748
3330.515,25.47286
3332.443,25.43874
3334.372,25.4021
3336.3,25.36569
3338.229,25.33428
3340.157,25.29644
3342.086,25.26209
3344.014,25.22874
3345.943,25.19306
3347.871,25.15697
3349.8,25.12561
3351.728,25.08822
3353.657,25.05374
3355.585,25.02067
3357.514,24.98557
3359.442,24.94933
3361.371,24.91842
3363.299,24.88146
3365.228,24.8468
3367.156,24.81416
3369.085,24.77982
3371.013,24.74342
3372.942,24.71261
3374.87,24.67606
3376.799,24.64106
3378.727,24.60774
3380.656,24.57286
3382.584,24.53579
3384.513,24.50404
3386.441,24.46711
3388.37,24.43131
3390.298,24.39697
3392.227,24.36071
3394.155,24.32211
3396.083,24.2893
3398.012,24.25126
3399.941,24.21335
3401.869,24.17716
3403.798,24.14016
3405.726,24.09905
3407.655,24.0633
3409.583,24.02277
3411.511,23.9812
3413.44,23.94067
3415.369,23.89885
3417.297,23.85172
3419.226,23.80818
3421.154,23.75975
3423.083,23.71049
3425.011,23.66137
3426.939,23.61049
3428.868,23.55399
3430.797,23.50276
3432.725,23.44933
3434.654,23.39692
3436.582,23.34952
3438.51,23.30707
3440.439,23.26364
3442.367,23.22998
3444.296,23.19769
3446.225,23.16541
3448.153,23.13793
3450.082,23.11352
3452.01,23.08262
3453.938,23.05584
3455.867,23.02625
3457.795,22.99445
3459.724,22.96348
3461.653,22.93428
3463.581,22.90043
3465.51,22.87177
3467.438,22.84244
3469.366,22.81241
3471.295,22.78436
3473.223,22.76052
3475.152,22.73329
3477.081,22.71218
3479.009,22.69132
3480.938,22.6698
3482.866,22.65182
3484.794,22.63887
3486.723,22.62049
3488.651,22.60798
3490.58,22.59645
3492.509,22.58339
3494.437,22.57056
3496.365,22.56164
3498.294,22.54821
3500.222,22.5368
3502.151,22.52389
3504.079,22.51162
3506.008,22.50008
3507.937,22.48893
3509.865,22.47274
3511.793,22.46091
3513.722,22.4484
3515.65,22.43316
3517.579,22.41578
3519.507,22.40205
3521.436,22.38195
3523.365,22.36358
3525.293,22.34674
3527.221,22.32764
3529.15,22.30825
3531.078,22.29351
3533.007,22.27241
3534.935,22.25053
3536.864,22.23002
3538.792,22.20909
3540.721,22.185
3542.649,22.1627
3544.578,22.13352
3546.506,22.1085
3548.435,22.08867
3550.363,22.06459
3552.292,22.03551
3554.22,22.01402
3556.149,21.98813
3558.077,21.96043
3560.006,21.93268
3561.934,21.90502
3563.863,21.87122
3565.791,21.83554
3567.72,21.80474
3569.648,21.78848
3571.577,21.7687
3573.505,21.74296
3575.434,21.71394
3577.362,21.68997
3579.291,21.66301
3581.219,21.63691
3583.148,21.61092
3585.076,21.57775
3587.005,21.53856
3588.933,21.51982
3590.862,21.50568
3592.79,21.47914
3594.719,21.45125
3596.647,21.4283
3598.576,21.40136
3600.504,21.37617
3602.433,21.35183
3604.361,21.32439
3606.29,21.28874
3608.218,21.25075
3610.147,21.22346
3612.075,21.20008
3614.004,21.17525
3615.932,21.1483
3617.861,21.10844
3619.789,21.07954
3621.718,21.0635
3623.646,21.04167
3625.575,21.00346
3627.503,20.94086
3629.432,20.90236
3631.36,20.90551
3633.289,20.88332
3635.217,20.85636
3637.146,20.82626
3639.074,20.79279
3641.003,20.75562
3642.931,20.71599
3644.86,20.65676
3646.788,20.57806
3648.717,20.52064
3650.645,20.5258
3652.574,20.54638
3654.502,20.52571
3656.431,20.48956
3658.359,20.47501
3660.288,20.44946
3662.216,20.41739
3664.145,20.38498
3666.073,20.35129
3668.002,20.29809
3669.93,20.24524
3671.859,20.22966
3673.787,20.19162
3675.716,20.1431
3677.644,20.1484
3679.573,20.13687
3681.501,20.11642
3683.43,20.08937
3685.358,20.05445
3687.287,19.99267
3689.215,19.96244
3691.144,19.95922
3693.072,19.9499
3695.001,19.92955
3696.929,19.90525
3698.858,19.87764
3700.786,19.84541
3702.715,19.82148
3704.643,19.80451
3706.572,19.77612
3708.5,19.73857
3710.429,19.6947
3712.357,19.66669
3714.286,19.65974
3716.214,19.63923
3718.143,19.60435
3720.071,19.56698
3722,19.52644
3723.928,19.48588
3725.857,19.43978
3727.785,19.39874
3729.714,19.34525
3731.642,19.27712
3733.571,19.22764
3735.499,19.18734
3737.427,19.18485
3739.356,19.20871
3741.285,19.22012
3743.213,19.19357
3745.142,19.20995
3747.07,19.25735
3748.999,19.24013
3750.927,19.23088
3752.855,19.24426
3754.784,19.26962
3756.713,19.2584
3758.641,19.2407
3760.57,19.22519
3762.498,19.21708
3764.427,19.18928
3766.355,19.16907
3768.283,19.14283
3770.212,19.12026
3772.141,19.10611
3774.069,19.08875
3775.998,19.06109
3777.926,19.03119
3779.854,19.00376
3781.783,18.98641
3783.711,18.95907
3785.64,18.93674
3787.569,18.91122
3789.497,18.88739
3791.426,18.8614
3793.354,18.83467
3795.282,18.79818
3797.211,18.77365
3799.139,18.73313
3801.068,18.68352
3802.997,18.67929
3804.925,18.6626
3806.854,18.62238
3808.782,18.61738
3810.71,18.60085
3812.639,18.57043
3814.567,18.51482
3816.496,18.48297
3818.425,18.4739
3820.353,18.43642
3822.281,18.41735
3824.21,18.41033
3826.138,18.384
3828.067,18.3609
3829.995,18.32777
3831.924,18.29858
3833.853,18.26962
3835.781,18.22515
3837.709,18.1833
3839.638,18.17979
3841.566,18.16634
3843.495,18.14656
3845.423,18.12611
3847.352,18.10351
3849.281,18.06614
3851.209,18.00182
3853.137,17.93329
3855.066,17.94231
3856.994,17.9641
3858.923,17.94705
3860.851,17.91589
3862.78,17.88497
3864.708,17.85296
3866.637,17.8352
3868.565,17.79583
3870.494,17.76784
3872.422,17.75983
3874.351,17.7399
3876.279,17.72061
3878.208,17.69254
3880.136,17.6605
3882.065,17.63968
3883.993,17.6064
3885.922,17.57846
3887.85,17.56796
3889.779,17.5391
3891.707,17.51209
3893.636,17.49834
3895.564,17.47623
3897.493,17.44524
3899.421,17.40896
3901.35,17.3818
3903.278,17.35732
3905.207,17.34233
3907.135,17.32937
3909.064,17.31157
3910.992,17.28581
3912.921,17.26157
3914.849,17.23468
3916.778,17.20549
3918.706,17.18171
3920.635,17.16392
3922.563,17.13987
3924.492,17.11441
3926.42,17.09393
3928.349,17.07097
3930.277,17.0427
3932.206,17.01999
3934.134,16.99892
3936.063,16.97761
3937.991,16.9548
3939.92,16.93079
3941.848,16.90278
3943.777,16.88237
3945.705,16.85921
3947.634,16.83396
3949.562,16.81196
3951.491,16.79107
3953.419,16.76671
3955.348,16.74586
3957.276,16.7224
3959.205,16.69856
3961.133,16.67515
3963.062,16.65379
3964.99,16.6297
3966.919,16.6085
3968.847,16.58486
3970.776,16.56146
3972.704,16.53901
3974.633,16.51744
3976.561,16.49287
3978.49,16.47247
3980.418,16.44951
3982.347,16.42606
3984.275,16.40399
3986.204,16.38339
3988.132,16.35833
3990.061,16.33708
3991.989,16.31525
3993.918,16.29224
3995.846,16.26986
3997.775,16.24947
3999.703,16.22495
