399.1989,2.710738
401.1274,2.878464
403.0559,3.061378
404.9844,3.24185
406.9129,3.436165
408.8414,3.625562
410.7699,3.81568
412.6984,4.022137
414.6269,4.230651
416.5554,4.411273
418.4839,4.591675
420.4124,4.776859
422.3409,4.962344
424.2694,5.147983
426.1979,5.324517
428.1264,5.486503
430.0549,5.661701
431.9834,5.828287
433.9119,5.993342
435.8404,6.132188
437.7689,6.278127
439.6974,6.428842
441.6259,6.568224
443.5544,6.695577
445.4829,6.826741
447.4114,6.942674
449.3399,7.041866
451.2684,7.1285
453.1969,7.220221
455.1254,7.318089
457.0539,7.402852
458.9824,7.465743
460.9109,7.547691
462.8394,7.63641
464.7679,7.715082
466.6964,7.798097
468.6248,7.899626
470.5533,7.999131
472.4818,8.112412
474.4103,8.246758
476.3388,8.393459
478.2673,8.545122
480.1958,8.709244
482.1243,8.864537
484.0528,9.028296
485.9813,9.196861
487.9098,9.370501
489.8383,9.540501
491.7668,9.709274
493.6953,9.881324
495.6238,10.05697
497.5523,10.21754
499.4808,10.3667
501.4093,10.5084
503.3378,10.65297
505.2663,10.77829
507.1948,10.90173
509.1233,11.02019
511.0518,11.1323
512.9803,11.23888
514.9088,11.33677
516.8373,11.43183
518.7657,11.54296
520.6943,11.65081
522.6227,11.76043
524.5513,11.87308
526.4797,11.99541
528.4083,12.12027
530.3367,12.24838
532.2653,12.37906
534.1937,12.50391
536.1223,12.62322
538.0507,12.75178
539.9792,12.87863
541.9077,13.00316
543.8362,13.13188
545.7647,13.26845
547.6932,13.39621
549.6217,13.52677
551.5502,13.65559
553.4787,13.79368
555.4072,13.9329
557.3357,14.07804
559.2642,14.22197
561.1927,14.37645
563.1212,14.53393
565.0497,14.68898
566.9782,14.84797
568.9067,15.01763
570.8352,15.18087
572.7637,15.3478
574.6922,15.51656
576.6207,15.68416
578.5492,15.85676
580.4777,16.03245
582.4062,16.19977
584.3347,16.36851
586.2632,16.534
588.1917,16.70173
590.1202,16.87241
592.0486,17.0455
593.9772,17.22457
595.9056,17.41255
597.8342,17.59527
599.7626,17.78236
601.6912,17.96655
603.6196,18.1491
605.5482,18.33003
607.4766,18.49928
609.4052,18.66314
611.3336,18.82693
613.2621,18.98709
615.1906,19.14931
617.1191,19.29777
619.0476,19.43879
620.9761,19.58528
622.9046,19.73558
624.8331,19.87885
626.7616,20.01893
628.6901,20.16565
630.6186,20.31734
632.5471,20.46404
634.4756,20.60741
636.4041,20.74386
638.3326,20.8839
640.2611,21.01843
642.1896,21.14718
644.1181,21.27119
646.0466,21.38521
647.9751,21.50127
649.9036,21.63656
651.8321,21.76269
653.7606,21.87927
655.6891,21.98753
657.6176,22.09408
659.5461,22.19753
661.4745,22.29679
663.4031,22.39256
665.3315,22.4826
667.2601,22.55741
669.1885,22.66111
671.1171,22.77465
673.0455,22.87602
674.9741,22.98211
676.9025,23.09119
678.8311,23.19521
680.7595,23.29484
682.688,23.39087
684.6165,23.49305
686.545,23.59344
688.4735,23.69207
690.402,23.79106
692.3305,23.89176
694.259,23.99233
696.1875,24.09019
698.116,24.17795
700.0445,24.26691
701.973,24.35619
703.9015,24.43592
705.83,24.51191
707.7585,24.58993
709.687,24.66644
711.6155,24.73561
713.544,24.79741
715.4725,24.85742
717.401,24.91784
719.3295,24.97815
721.258,25.03369
723.1865,25.08906
725.115,25.14241
727.0435,25.19634
728.972,25.24926
730.9005,25.30361
732.829,25.35989
734.7574,25.41554
736.686,25.47129
738.6144,25.5304
740.543,25.59238
742.4714,25.65933
744.4,25.72462
746.3284,25.79343
748.257,25.86378
750.1854,25.93152
752.114,25.9973
754.0424,26.06863
755.9709,26.14215
757.8994,26.21507
759.8279,26.28692
761.7564,26.35404
763.6849,26.42029
765.6134,26.48677
767.5419,26.54527
769.4704,26.60142
771.3989,26.65299
773.3274,26.70444
775.2559,26.75256
777.1844,26.79775
779.1129,26.83781
781.0414,26.87664
782.9699,26.91069
784.8984,26.93955
786.8269,26.95791
788.7554,26.97012
790.6839,26.98052
792.6124,26.99137
794.5409,27.00662
796.4694,27.03414
798.3979,27.06992
800.3264,27.11637
802.2549,27.17186
804.1833,27.2336
806.1119,27.29549
808.0403,27.36561
809.9689,27.4434
811.8973,27.5205
813.8259,27.5939
815.7543,27.6642
817.6829,27.73042
819.6113,27.79897
821.5399,27.86734
823.4683,27.94367
825.3969,28.02647
827.3253,28.10692
829.2538,28.18423
831.1823,28.25973
833.1108,28.33059
835.0393,28.39947
836.9678,28.46729
838.8963,28.53471
840.8248,28.60296
842.7533,28.67177
844.6818,28.74071
846.6103,28.81315
848.5388,28.88463
850.4673,28.95273
852.3958,29.01326
854.3243,29.07142
856.2528,29.12859
858.1813,29.1815
860.1098,29.23169
862.0383,29.2875
863.9668,29.34843
865.8953,29.42101
867.8238,29.50363
869.7523,29.59326
871.6808,29.68685
873.6093,29.78059
875.5378,29.87074
877.4662,29.96249
879.3948,30.05547
881.3232,30.15193
883.2518,30.24536
885.1802,30.33355
887.1088,30.4233
889.0372,30.51619
890.9658,30.6064
892.8942,30.70111
894.8227,30.80197
896.7512,30.90611
898.6797,31.01175
900.6082,31.11707
902.5367,31.22677
904.4652,31.34339
906.3937,31.45947
908.3222,31.57981
910.2507,31.70116
912.1792,31.82055
914.1077,31.93998
916.0362,32.06107
917.9647,32.18154
919.8932,32.30637
921.8217,32.43575
923.7502,32.57279
925.6786,32.716
927.6072,32.86057
929.5356,33.00014
931.4642,33.13906
933.3926,33.27502
935.3212,33.40575
937.2496,33.53119
939.1782,33.65388
941.1066,33.77301
943.0352,33.89181
944.9636,34.00729
946.8922,34.11798
948.8206,34.22714
950.7491,34.33818
952.6776,34.44444
954.6061,34.54253
956.5346,34.6313
958.4631,34.71246
960.3916,34.78905
962.3201,34.87346
964.2486,34.97128
966.1771,35.08368
968.1056,35.20505
970.0341,35.3215
971.9626,35.42513
973.8911,35.52488
975.8196,35.62822
977.7481,35.72919
979.6766,35.81337
981.6051,35.87999
983.5336,35.93233
985.4621,35.97589
987.3906,36.01245
989.3191,36.04869
991.2476,36.08469
993.1761,36.12215
995.1046,36.16444
997.0331,36.21155
998.9615,36.25331
1000.89,36.28492
1002.819,36.30199
1004.747,36.2996
1006.676,36.27495
1008.604,36.23527
1010.533,36.18246
1012.461,36.12046
1014.39,36.05541
1016.318,35.9962
1018.247,35.94732
1020.175,35.91493
1022.104,35.89639
1024.032,35.88575
1025.961,35.87885
1027.889,35.87355
1029.818,35.86504
1031.746,35.85357
1033.675,35.83525
1035.603,35.81007
1037.531,35.77864
1039.46,35.74198
1041.389,35.69749
1043.317,35.64981
1045.245,35.60037
1047.174,35.55055
1049.103,35.49972
1051.031,35.45023
1052.959,35.39888
1054.888,35.34691
1056.817,35.29523
1058.745,35.24466
1060.673,35.19546
1062.602,35.15065
1064.531,35.10633
1066.459,35.06338
1068.387,35.02507
1070.316,34.99228
1072.245,34.9562
1074.173,34.92574
1076.101,34.92576
1078.03,34.95302
1079.958,35.00177
1081.887,35.12315
1083.815,35.28683
1085.744,35.42862
1087.672,35.54187
1089.601,35.64086
1091.529,35.73375
1093.458,35.82737
1095.386,35.92441
1097.315,36.0303
1099.243,36.14297
1101.172,36.26249
1103.1,36.38991
1105.029,36.52588
1106.957,36.66556
1108.886,36.81119
1110.814,36.96081
1112.743,37.11393
1114.671,37.26791
1116.6,37.42299
1118.528,37.57582
1120.457,37.72826
1122.385,37.8777
1124.314,38.02353
1126.242,38.16394
1128.171,38.30236
1130.099,38.43712
1132.028,38.56918
1133.956,38.69827
1135.885,38.82436
1137.813,38.93376
1139.742,39.01524
1141.67,39.08671
1143.599,39.19442
1145.527,39.31414
1147.456,39.41084
1149.384,39.49997
1151.313,39.65881
1153.241,39.89386
1155.17,40.12018
1157.098,40.30986
1159.027,40.48094
1160.955,40.6388
1162.884,40.78686
1164.812,40.92965
1166.741,41.08176
1168.669,41.23116
1170.598,41.3688
1172.526,41.49334
1174.455,41.60505
1176.383,41.66324
1178.312,41.60522
1180.24,41.55883
1182.169,41.8559
1184.097,42.28985
1186.026,42.55637
1187.954,42.7357
1189.883,42.88832
1191.811,43.03093
1193.74,43.16479
1195.668,43.29539
1197.597,43.42391
1199.525,43.55396
1201.454,43.67956
1203.382,43.80263
1205.311,43.92131
1207.239,44.03742
1209.168,44.14878
1211.096,44.2597
1213.025,44.36984
1214.953,44.48135
1216.882,44.59358
1218.81,44.70646
1220.739,44.81872
1222.667,44.9313
1224.596,45.04189
1226.524,45.15334
1228.453,45.26614
1230.381,45.38036
1232.31,45.49405
1234.238,45.60892
1236.167,45.72233
1238.095,45.83369
1240.024,45.94195
1241.952,46.04579
1243.881,46.14304
1245.809,46.23645
1247.738,46.32552
1249.666,46.40778
1251.595,46.47733
1253.523,46.52647
1255.452,46.54454
1257.38,46.53709
1259.309,46.52492
1261.237,46.54313
1263.166,46.62092
1265.094,46.76207
1267.023,46.94815
1268.951,47.14633
1270.88,47.31851
1272.808,47.45777
1274.737,47.57555
1276.665,47.67895
1278.594,47.76823
1280.522,47.84464
1282.451,47.91329
1284.379,47.97744
1286.308,48.03719
1288.236,48.09664
1290.165,48.15631
1292.093,48.21313
1294.022,48.26717
1295.95,48.31938
1297.879,48.37056
1299.807,48.42216
1301.736,48.47254
1303.664,48.52245
1305.593,48.57397
1307.521,48.62715
1309.45,48.67802
1311.378,48.72652
1313.307,48.77304
1315.235,48.81797
1317.164,48.85814
1319.092,48.89627
1321.021,48.93532
1322.949,48.97467
1324.878,49.01188
1326.806,49.0482
1328.735,49.08459
1330.663,49.11845
1332.592,49.14856
1334.52,49.17892
1336.449,49.20603
1338.377,49.23059
1340.306,49.26079
1342.234,49.29611
1344.163,49.32006
1346.091,49.33607
1348.02,49.35103
1349.948,49.37045
1351.877,49.39325
1353.805,49.41874
1355.734,49.44446
1357.662,49.47092
1359.591,49.48985
1361.519,49.50018
1363.448,49.52142
1365.376,49.55647
1367.305,49.57572
1369.233,49.59102
1371.161,49.6042
1373.09,49.60365
1375.019,49.61062
1376.947,49.63123
1378.875,49.64153
1380.804,49.64145
1382.733,49.62517
1384.661,49.63211
1386.589,49.66643
1388.518,49.72924
1390.447,49.78734
1392.375,49.80088
1394.303,49.79407
1396.232,49.82028
1398.161,49.84175
1400.089,49.87299
1402.017,49.91705
1403.946,49.93742
1405.875,49.96715
1407.803,50.00596
1409.731,50.03324
1411.66,50.05898
1413.589,50.08523
1415.517,50.10172
1417.445,50.0825
1419.374,50.07663
1421.302,50.15538
1423.231,50.2048
1425.159,50.23137
1427.088,50.25491
1429.016,50.25639
1430.945,50.26964
1432.873,50.28545
1434.802,50.25045
1436.73,50.20954
1438.659,50.26527
1440.587,50.2985
1442.516,50.29914
1444.444,50.29402
1446.373,50.27781
1448.301,50.26547
1450.23,50.27578
1452.158,50.26748
1454.087,50.22467
1456.015,50.10711
1457.944,50.1152
1459.872,50.22297
1461.801,50.26385
1463.729,50.24706
1465.658,50.25965
1467.586,50.31171
1469.515,50.32653
1471.443,50.29539
1473.372,50.31515
1475.3,50.39325
1477.229,50.44843
1479.157,50.48938
1481.086,50.50365
1483.014,50.5242
1484.943,50.5298
1486.871,50.51691
1488.8,50.50321
1490.728,50.52013
1492.657,50.56465
1494.585,50.54288
1496.514,50.5061
1498.442,50.54425
1500.371,50.58676
1502.299,50.6026
1504.228,50.51159
1506.156,50.39561
1508.085,50.46238
1510.013,50.56591
1511.942,50.58445
1513.87,50.59155
1515.799,50.56661
1517.727,50.5537
1519.656,50.5081
1521.584,50.47084
1523.513,50.53811
1525.441,50.56162
1527.37,50.58202
1529.298,50.60614
1531.227,50.5973
1533.155,50.55973
1535.084,50.58615
1537.012,50.5495
1538.941,50.41181
1540.869,50.41433
1542.798,50.50881
1544.726,50.566
1546.655,50.61174
1548.583,50.62448
1550.512,50.62188
1552.44,50.60409
1554.369,50.56808
1556.297,50.51687
1558.226,50.37817
1560.154,50.4155
1562.083,50.586
1564.011,50.63458
1565.94,50.63495
1567.868,50.60897
1569.797,50.58129
1571.725,50.61956
1573.654,50.59673
1575.582,50.49397
1577.511,50.53352
1579.439,50.61316
1581.368,50.61248
1583.296,50.60725
1585.225,50.59834
1587.153,50.59121
1589.082,50.57864
1591.01,50.57074
1592.939,50.55792
1594.867,50.54653
1596.796,50.53574
1598.724,50.5252
1600.653,50.50629
1602.581,50.48748
1604.51,50.46189
1606.438,50.42412
1608.367,50.37321
1610.295,50.33572
1612.224,50.3084
1614.152,50.23439
1616.081,50.07014
1618.009,50.00115
1619.938,50.01996
1621.866,50.05161
1623.795,50.12568
1625.723,50.20859
1627.652,50.24194
1629.58,50.26572
1631.509,50.27839
1633.437,50.21838
1635.366,50.13993
1637.294,50.19853
1639.223,50.26406
1641.151,50.2717
1643.08,50.25397
1645.008,50.1755
1646.937,50.14881
1648.865,50.20326
1650.794,50.11175
1652.722,49.93893
1654.651,50.05634
1656.579,50.20678
1658.508,50.22549
1660.436,50.20328
1662.365,50.16879
1664.293,50.18194
1666.222,50.18734
1668.15,50.13214
1670.079,50.11166
1672.007,50.13905
1673.936,50.11034
1675.864,50.09483
1677.793,50.14097
1679.721,50.13545
1681.65,50.08317
1683.578,49.94247
1685.507,49.96173
1687.435,50.08615
1689.364,50.10792
1691.292,50.1122
1693.221,50.06923
1695.149,49.94129
1697.078,49.94611
1699.006,49.91953
1700.935,49.89952
1702.863,50.00713
1704.792,50.00308
1706.72,50.00461
1708.649,50.00933
1710.577,50.00539
1712.505,49.96849
1714.434,49.90332
1716.363,49.79754
1718.291,49.78161
1720.219,49.84933
1722.148,49.84984
1724.077,49.81126
1726.005,49.77597
1727.933,49.72439
1729.862,49.66866
1731.791,49.56876
1733.719,49.45815
1735.647,49.52084
1737.576,49.59993
1739.505,49.60888
1741.433,49.67199
1743.361,49.73333
1745.29,49.78278
1747.219,49.80689
1749.147,49.81025
1751.075,49.81134
1753.004,49.87012
1754.932,49.89655
1756.861,49.89167
1758.789,49.90228
1760.718,49.88349
1762.646,49.88199
1764.575,49.90771
1766.503,49.8858
1768.432,49.86426
1770.36,49.83681
1772.289,49.79465
1774.217,49.83398
1776.146,49.8696
1778.074,49.86511
1780.003,49.85122
1781.931,49.84486
1783.86,49.8334
1785.788,49.82661
1787.717,49.83082
1789.645,49.80273
1791.574,49.75533
1793.502,49.7568
1795.431,49.78617
1797.359,49.778
1799.288,49.75948
1801.216,49.74513
1803.145,49.74958
1805.073,49.74553
1807.002,49.73527
1808.93,49.71601
1810.859,49.70286
1812.787,49.6957
1814.716,49.68936
1816.644,49.67229
1818.573,49.6608
1820.501,49.64534
1822.43,49.62632
1824.358,49.59204
1826.287,49.57928
1828.215,49.55559
1830.144,49.52837
1832.072,49.53017
1834.001,49.52248
1835.929,49.49946
1837.858,49.47979
1839.786,49.45946
1841.715,49.41984
1843.643,49.3569
1845.572,49.35342
1847.5,49.3596
1849.429,49.34198
1851.357,49.32045
1853.286,49.29593
1855.214,49.26974
1857.143,49.24454
1859.071,49.21868
1861,49.19371
1862.928,49.16903
1864.857,49.1417
1866.785,49.10059
1868.714,49.06151
1870.642,49.05266
1872.571,49.04586
1874.499,49.02295
1876.428,49.00053
1878.356,48.97636
1880.285,48.95396
1882.213,48.93026
1884.142,48.90852
1886.07,48.8852
1887.999,48.85622
1889.927,48.82972
1891.856,48.81886
1893.784,48.79764
1895.713,48.7766
1897.641,48.75806
1899.57,48.7404
1901.498,48.71893
1903.427,48.69927
1905.355,48.67775
1907.284,48.65629
1909.212,48.632
1911.141,48.61523
1913.069,48.59704
1914.998,48.57477
1916.926,48.53865
1918.855,48.51926
1920.783,48.50872
1922.712,48.48714
1924.64,48.4705
1926.569,48.45393
1928.497,48.43278
1930.426,48.4123
1932.354,48.39037
1934.283,48.36978
1936.211,48.34797
1938.14,48.32627
1940.068,48.29985
1941.997,48.27081
1943.925,48.25135
1945.854,48.23463
1947.782,48.21241
1949.711,48.19035
1951.639,48.16785
1953.568,48.14583
1955.496,48.11922
1957.425,48.08685
1959.353,48.06058
1961.282,48.04751
1963.21,48.02613
1965.139,48.0016
1967.067,47.97424
1968.996,47.95417
1970.924,47.93165
1972.853,47.90772
1974.781,47.88234
1976.71,47.859
1978.638,47.83263
1980.567,47.80821
1982.495,47.78271
1984.424,47.75834
1986.352,47.73141
1988.281,47.70562
1990.209,47.67623
1992.138,47.64931
1994.066,47.62706
1995.995,47.60431
1997.923,47.57769
1999.852,47.55244
2001.78,47.52554
2003.709,47.50029
2005.637,47.47365
2007.566,47.44855
2009.494,47.42206
2011.423,47.39772
2013.351,47.37182
2015.28,47.3448
2017.208,47.31704
2019.137,47.29497
2021.065,47.27005
2022.994,47.24564
2024.922,47.22021
2026.851,47.19396
2028.779,47.16674
2030.708,47.14561
2032.636,47.12176
2034.565,47.09863
2036.493,47.07362
2038.422,47.04977
2040.35,47.02451
2042.279,47.00137
2044.207,46.97726
2046.135,46.95554
2048.064,46.93189
2049.992,46.90878
2051.921,46.88581
2053.85,46.86418
2055.778,46.8406
2057.707,46.81906
2059.635,46.7953
2061.563,46.77471
2063.492,46.75119
2065.42,46.72966
2067.349,46.70804
2069.278,46.68727
2071.206,46.66519
2073.135,46.64397
2075.063,46.6224
2076.991,46.60054
2078.92,46.57944
2080.848,46.5578
2082.777,46.53522
2084.706,46.51521
2086.634,46.49139
2088.563,46.47137
2090.491,46.44731
2092.419,46.42785
2094.348,46.40325
2096.276,46.3849
2098.205,46.35981
2100.134,46.33942
2102.062,46.3161
2103.99,46.29411
2105.919,46.27167
2107.847,46.24909
2109.776,46.2272
2111.704,46.20426
2113.633,46.18335
2115.562,46.15863
2117.49,46.13904
2119.418,46.11524
2121.347,46.09425
2123.275,46.07195
2125.204,46.05136
2127.132,46.02835
2129.061,46.00723
2130.99,45.98472
2132.918,45.9619
2134.846,45.94032
2136.775,45.91741
2138.703,45.89629
2140.632,45.87303
2142.56,45.851
2144.489,45.82606
2146.417,45.80133
2148.346,45.77477
2150.274,45.75026
2152.203,45.72519
2154.131,45.69998
2156.06,45.67543
2157.988,45.65097
2159.917,45.62498
2161.845,45.60027
2163.774,45.57416
2165.702,45.54916
2167.631,45.52436
2169.559,45.49867
2171.488,45.47225
2173.416,45.44823
2175.345,45.42198
2177.273,45.39708
2179.202,45.37241
2181.13,45.34689
2183.059,45.32106
2184.987,45.29695
2186.916,45.27076
2188.844,45.24683
2190.773,45.22219
2192.701,45.19715
2194.63,45.17242
2196.558,45.14863
2198.487,45.12227
2200.415,45.09909
2202.344,45.07411
2204.272,45.04828
2206.201,45.02303
2208.129,44.99829
2210.058,44.97071
2211.986,44.94555
2213.915,44.91866
2215.843,44.89273
2217.772,44.86656
2219.7,44.83979
2221.629,44.81209
2223.557,44.78687
2225.486,44.75807
2227.414,44.73071
2229.343,44.70356
2231.271,44.67577
2233.2,44.64726
2235.128,44.62046
2237.057,44.59073
2238.985,44.56324
2240.914,44.53439
2242.842,44.50497
2244.771,44.47581
2246.699,44.44732
2248.628,44.41611
2250.556,44.38821
2252.485,44.35783
2254.413,44.32751
2256.342,44.29786
2258.27,44.26777
2260.199,44.23528
2262.127,44.20578
2264.056,44.17361
2265.984,44.1426
2267.913,44.11126
2269.841,44.07863
2271.77,44.0458
2273.698,44.01559
2275.627,43.98157
2277.555,43.94996
2279.484,43.91819
2281.412,43.88461
2283.341,43.85126
2285.269,43.81968
2287.198,43.7835
2289.126,43.75034
2291.055,43.71676
2292.983,43.68209
2294.912,43.64775
2296.84,43.61438
2298.769,43.578
2300.697,43.54511
2302.626,43.50949
2304.554,43.47313
2306.483,43.43809
2308.411,43.40222
2310.34,43.36267
2312.268,43.32743
2314.197,43.28921
2316.125,43.24953
2318.054,43.21051
2319.982,43.17095
2321.911,43.12931
2323.839,43.09156
2325.768,43.0517
2327.696,43.01311
2329.625,42.97608
2331.553,42.94017
2333.482,42.9071
2335.41,42.87986
2337.339,42.85103
2339.267,42.82679
2341.196,42.80783
2343.124,42.79486
2345.053,42.78932
2346.981,42.7909
2348.91,42.77475
2350.838,42.7276
2352.767,42.6624
2354.695,42.5979
2356.624,42.54108
2358.552,42.4941
2360.481,42.45321
2362.409,42.42709
2364.338,42.40928
2366.266,42.39891
2368.195,42.39799
2370.123,42.40316
2372.052,42.40754
2373.98,42.4164
2375.908,42.42136
2377.837,42.4239
2379.766,42.42529
2381.694,42.4229
2383.623,42.41625
2385.551,42.41188
2387.479,42.40104
2389.408,42.38879
2391.336,42.37696
2393.265,42.36058
2395.194,42.33986
2397.122,42.32122
2399.051,42.29524
2400.979,42.26811
2402.907,42.24216
2404.836,42.21404
2406.764,42.18475
2408.693,42.15886
2410.622,42.12833
2412.55,42.10012
2414.479,42.07193
2416.407,42.04086
2418.335,42.01077
2420.264,41.98364
2422.192,41.95067
2424.121,41.92098
2426.05,41.89221
2427.978,41.86065
2429.906,41.8297
2431.835,41.80124
2433.763,41.76807
2435.692,41.73876
2437.62,41.70869
2439.549,41.67641
2441.478,41.64587
2443.406,41.61583
2445.334,41.58172
2447.263,41.55282
2449.191,41.52179
2451.12,41.4887
2453.048,41.45855
2454.977,41.42853
2456.906,41.39408
2458.834,41.3646
2460.762,41.333
2462.691,41.3003
2464.619,41.26964
2466.548,41.23851
2468.476,41.20472
2470.405,41.17583
2472.333,41.14315
2474.262,41.11024
2476.19,41.08014
2478.119,41.0483
2480.047,41.01476
2481.976,40.98634
2483.904,40.95321
2485.833,40.9209
2487.761,40.89103
2489.69,40.85942
2491.618,40.82656
2493.547,40.79802
2495.475,40.76482
2497.404,40.73373
2499.332,40.70393
2501.261,40.67125
2503.189,40.6397
2505.118,40.61202
2507.046,40.57875
2508.975,40.54855
2510.903,40.52012
2512.832,40.48839
2514.76,40.45704
2516.689,40.42917
2518.617,40.39579
2520.546,40.36566
2522.474,40.3368
2524.403,40.30497
2526.331,40.27454
2528.26,40.24656
2530.188,40.213
2532.117,40.18398
2534.045,40.15477
2535.974,40.12236
2537.902,40.09257
2539.831,40.0646
2541.759,40.03054
2543.688,40.002
2545.616,39.97288
2547.545,39.93988
2549.473,39.90963
2551.402,39.88105
2553.33,39.84742
2555.259,39.81874
2557.187,39.78817
2559.116,39.75532
2561.044,39.72616
2562.973,39.69652
2564.901,39.66181
2566.83,39.63396
2568.758,39.60333
2570.687,39.5695
2572.615,39.53986
2574.544,39.51022
2576.472,39.47555
2578.401,39.44711
2580.329,39.41565
2582.258,39.38203
2584.186,39.3522
2586.115,39.32156
2588.043,39.28706
2589.972,39.25854
2591.9,39.22581
2593.829,39.19221
2595.757,39.16281
2597.686,39.13076
2599.614,39.09559
2601.543,39.06752
2603.471,39.0345
2605.4,39.00023
2607.328,38.97029
2609.257,38.93825
2611.185,38.90299
2613.114,38.87465
2615.042,38.84199
2616.971,38.80726
2618.899,38.77571
2620.828,38.74248
2622.756,38.70793
2624.685,38.67893
2626.613,38.6437
2628.542,38.60973
2630.47,38.57975
2632.399,38.54563
2634.327,38.51035
2636.256,38.48111
2638.184,38.44568
2640.113,38.41129
2642.041,38.38041
2643.97,38.34615
2645.898,38.311
2647.827,38.28092
2649.755,38.24493
2651.684,38.21089
2653.612,38.17936
2655.541,38.14387
2657.469,38.10894
2659.398,38.07896
2661.326,38.04202
2663.255,38.00795
2665.183,37.97649
2667.112,37.94024
2669.04,37.90487
2670.969,37.87477
2672.897,37.83794
2674.826,37.80365
2676.754,37.77181
2678.683,37.73605
2680.611,37.70112
2682.54,37.67
2684.468,37.63258
2686.397,37.59882
2688.325,37.56639
2690.254,37.52942
2692.182,37.495
2694.111,37.46402
2696.039,37.42559
2697.968,37.39196
2699.896,37.36006
2701.825,37.32294
2703.753,37.28784
2705.682,37.25682
2707.61,37.21927
2709.539,37.18596
2711.467,37.15322
2713.396,37.11647
2715.324,37.08244
2717.253,37.051
2719.181,37.01318
2721.11,36.98078
2723.038,36.9487
2724.967,36.91209
2726.895,36.87865
2728.823,36.84812
2730.752,36.81066
2732.681,36.77831
2734.609,36.74707
2736.538,36.71135
2738.466,36.6785
2740.395,36.64812
2742.323,36.61141
2744.251,36.5802
2746.18,36.54848
2748.109,36.51276
2750.037,36.48093
2751.966,36.45037
2753.894,36.41302
2755.823,36.3823
2757.751,36.35138
2759.679,36.31546
2761.608,36.28328
2763.537,36.25311
2765.465,36.21625
2767.394,36.18507
2769.322,36.15333
2771.25,36.11704
2773.179,36.08334
2775.107,36.05175
2777.036,36.0156
2778.965,35.98549
2780.893,35.95313
2782.822,35.91677
2784.75,35.88476
2786.678,35.8535
2788.607,35.81547
2790.535,35.78375
2792.464,35.75114
2794.393,35.71435
2796.321,35.68155
2798.25,35.65014
2800.178,35.61209
2802.106,35.57974
2804.035,35.54647
2805.963,35.50942
2807.892,35.47601
2809.821,35.44315
2811.749,35.40409
2813.677,35.37132
2815.606,35.3366
2817.534,35.29786
2819.463,35.26326
2821.391,35.22847
2823.32,35.18744
2825.249,35.15366
2827.177,35.11846
2829.105,35.07847
2831.034,35.04131
2832.962,35.00409
2834.891,34.9601
2836.819,34.92064
2838.748,34.87772
2840.677,34.82961
2842.605,34.78309
2844.533,34.73354
2846.462,34.67662
2848.39,34.62603
2850.319,34.57341
2852.247,34.518
2854.176,34.47095
2856.104,34.4299
2858.033,34.38757
2859.961,34.35508
2861.89,34.32265
2863.818,34.28703
2865.747,34.25421
2867.675,34.21957
2869.604,34.17727
2871.532,34.14017
2873.461,34.10239
2875.389,34.06477
2877.318,34.03455
2879.246,34.00567
2881.175,33.97086
2883.103,33.94086
2885.032,33.90599
2886.96,33.86558
2888.889,33.82858
2890.817,33.79033
2892.746,33.74468
2894.674,33.70394
2896.603,33.66137
2898.531,33.61528
2900.46,33.57167
2902.388,33.52736
2904.317,33.47716
2906.245,33.43272
2908.174,33.3861
2910.102,33.33568
2912.031,33.28813
2913.959,33.23878
2915.888,33.18249
2917.816,33.13206
2919.745,33.07974
2921.673,33.02474
2923.602,32.97708
2925.53,32.93522
2927.459,32.89363
2929.387,32.86364
2931.316,32.83617
2933.244,32.80841
2935.173,32.78667
2937.101,32.76662
2939.03,32.7424
2940.958,32.72385
2942.887,32.70131
2944.815,32.67183
2946.744,32.64171
2948.672,32.60729
2950.601,32.56145
2952.529,32.51625
2954.458,32.4665
2956.386,32.41018
2958.315,32.35723
2960.243,32.30881
2962.172,32.26016
2964.1,32.22724
2966.029,32.20854
2967.957,32.202
2969.886,32.2086
2971.814,32.21562
2973.743,32.21118
2975.671,32.20663
2977.6,32.19548
2979.528,32.17717
2981.457,32.16066
2983.385,32.14252
2985.314,32.11514
2987.242,32.09095
2989.171,32.06549
2991.099,32.03463
2993.028,32.00483
2994.956,31.97627
2996.885,31.9416
2998.813,31.91167
3000.742,31.88081
3002.67,31.84493
3004.599,31.81149
3006.527,31.7803
3008.456,31.74291
3010.384,31.71008
3012.313,31.6759
3014.241,31.63701
3016.17,31.6011
3018.098,31.57026
3020.027,31.53432
3021.955,31.50102
3023.884,31.46726
3025.812,31.42894
3027.741,31.39338
3029.669,31.36045
3031.598,31.32155
3033.526,31.2874
3035.455,31.25357
3037.383,31.21577
3039.312,31.18028
3041.24,31.14726
3043.169,31.10796
3045.097,31.07296
3047.026,31.03798
3048.954,30.999
3050.883,30.96319
3052.811,30.92963
3054.74,30.88881
3056.668,30.85162
3058.597,30.81695
3060.525,30.7783
3062.454,30.74016
3064.382,30.70493
3066.311,30.66386
3068.239,30.62722
3070.167,30.59202
3072.096,30.55245
3074.025,30.51429
3075.953,30.47855
3077.882,30.43744
3079.81,30.4004
3081.739,30.3643
3083.667,30.32331
3085.595,30.28354
3087.524,30.24916
3089.453,30.20826
3091.381,30.16962
3093.31,30.13243
3095.238,30.09099
3097.167,30.05172
3099.095,30.01596
3101.023,29.97382
3102.952,29.9345
3104.881,29.89768
3106.809,29.85732
3108.738,29.8173
3110.666,29.78116
3112.594,29.73873
3114.523,29.69975
3116.451,29.66368
3118.38,29.62311
3120.309,29.58273
3122.237,29.54704
3124.166,29.50631
3126.094,29.4676
3128.022,29.43169
3129.951,29.39165
3131.879,29.35131
3133.808,29.31637
3135.737,29.27587
3137.665,29.23669
3139.594,29.19989
3141.522,29.1601
3143.45,29.12017
3145.379,29.08484
3147.307,29.04391
3149.236,29.00454
3151.165,28.96854
3153.093,28.92879
3155.021,28.88825
3156.95,28.85339
3158.878,28.81308
3160.807,28.77339
3162.735,28.73716
3164.664,28.69816
3166.593,28.65744
3168.521,28.62181
3170.449,28.58152
3172.378,28.54189
3174.306,28.50558
3176.235,28.46623
3178.163,28.42542
3180.092,28.39044
3182.021,28.35031
3183.949,28.3101
3185.877,28.27366
3187.806,28.23455
3189.734,28.19295
3191.663,28.15685
3193.591,28.11643
3195.52,28.07496
3197.448,28.03676
3199.377,27.99685
3201.305,27.95423
3203.234,27.91706
3205.162,27.87684
3207.091,27.83703
3209.019,27.80167
3210.948,27.76562
3212.876,27.72725
3214.805,27.69442
3216.733,27.65774
3218.662,27.61945
3220.59,27.58511
3222.519,27.54925
3224.447,27.50942
3226.376,27.47471
3228.304,27.43699
3230.233,27.39761
3232.161,27.36196
3234.09,27.32547
3236.018,27.28483
3237.947,27.24948
3239.875,27.21154
3241.804,27.17161
3243.732,27.13487
3245.661,27.09814
3247.589,27.05771
3249.518,27.02232
3251.446,26.98458
3253.375,26.94446
3255.303,26.90823
3257.232,26.8719
3259.16,26.83113
3261.089,26.79582
3263.017,26.75883
3264.946,26.71883
3266.874,26.68231
3268.803,26.64661
3270.731,26.606
3272.66,26.56997
3274.588,26.53299
3276.517,26.49345
3278.445,26.45691
3280.374,26.42117
3282.302,26.38076
3284.231,26.34531
3286.159,26.30893
3288.088,26.26895
3290.016,26.23205
3291.945,26.19713
3293.873,26.15692
3295.802,26.12104
3297.73,26.08538
3299.659,26.04654
3301.587,26.01001
3303.516,25.97585
3305.444,25.93645
3307.373,25.9006
3309.301,25.86539
3311.23,25.82699
3313.158,25.79033
3315.087,25.75649
3317.015,25.71783
3318.944,25.68284
3320.872,25.64852
3322.801,25.61093
3324.729,25.57494
3326.658,25.542
3328.586,25.50389
3330.515,25.46876
3332.443,25.43527
3334.372,25.39852
3336.3,25.36239
3338.229,25.33022
3340.157,25.29321
3342.086,25.25823
3344.014,25.22508
3345.943,25.18919
3347.871,25.1538
3349.8,25.12206
3351.728,25.08517
3353.657,25.05043
3355.585,25.01782
3357.514,24.98215
3359.442,24.94639
3361.371,24.91519
3363.299,24.87898
3365.228,24.84368
3367.156,24.8117
3369.085,24.77705
3371.013,24.74119
3372.942,24.70958
3374.87,24.67366
3376.799,24.63835
3378.727,24.60563
3380.656,24.57041
3382.584,24.53368
3384.513,24.50131
3386.441,24.46508
3388.37,24.42895
3390.298,24.39512
3392.227,24.35859
3394.155,24.32077
3396.083,24.28721
3398.012,24.24978
3399.941,24.21176
3401.869,24.17604
3403.798,24.1385
3405.726,24.09788
3407.655,24.06155
3409.583,24.02154
3411.511,23.97947
3413.44,23.9394
3415.369,23.89711
3417.297,23.85048
3419.226,23.80672
3421.154,23.75889
3423.083,23.70881
3425.011,23.66022
3426.939,23.60876
3428.868,23.5526
3430.797,23.50124
3432.725,23.44857
3434.654,23.39554
3436.582,23.34865
3438.51,23.30572
3440.439,23.26299
3442.367,23.22908
3444.296,23.19755
3446.225,23.16504
3448.153,23.13825
3450.082,23.11308
3452.01,23.08245
3453.938,23.05536
3455.867,23.02621
3457.795,22.99405
3459.724,22.96372
3461.653,22.934
3463.581,22.90068
3465.51,22.87163
3467.438,22.84299
3469.366,22.81259
3471.295,22.78499
3473.223,22.7607
3475.152,22.73414
3477.081,22.7127
3479.009,22.69224
3480.938,22.67033
3482.866,22.65297
3484.794,22.63977
3486.723,22.62206
3488.651,22.60878
3490.58,22.59782
3492.509,22.58467
3494.437,22.57244
3496.365,22.56314
3498.294,22.55015
3500.222,22.53831
3502.151,22.52609
3504.079,22.5132
3506.008,22.50219
3507.937,22.4907
3509.865,22.4749
3511.793,22.46251
3513.722,22.45038
3515.65,22.43449
3517.579,22.41783
3519.507,22.40377
3521.436,22.384
3523.365,22.36533
3525.293,22.34918
3527.221,22.32941
3529.15,22.31048
3531.078,22.29543
3533.007,22.27501
3534.935,22.25267
3536.864,22.23278
3538.792,22.21155
3540.721,22.18768
3542.649,22.16476
3544.578,22.13661
3546.506,22.11116
3548.435,22.09166
3550.363,22.06691
3552.292,22.03878
3554.22,22.01714
3556.149,21.99146
3558.077,21.9633
3560.006,21.93634
3561.934,21.90826
3563.863,21.87464
3565.791,21.83847
3567.72,21.80857
3569.648,21.79179
3571.577,21.77214
3573.505,21.74602
3575.434,21.71777
3577.362,21.69326
3579.291,21.66673
3581.219,21.64038
3583.148,21.61481
3585.076,21.58132
3587.005,21.5431
3588.933,21.52416
3590.862,21.51044
3592.79,21.48321
3594.719,21.45587
3596.647,21.4331
3598.576,21.40659
3600.504,21.38035
3602.433,21.35648
3604.361,21.32886
3606.29,21.29377
3608.218,21.25526
3610.147,21.22852
3612.075,21.20479
3614.004,21.18049
3615.932,21.15291
3617.861,21.11333
3619.789,21.0839
3621.718,21.06849
3623.646,21.04658
3625.575,21.00905
3627.503,20.94617
3629.432,20.90818
3631.36,20.91018
3633.289,20.88853
3635.217,20.86164
3637.146,20.83166
3639.074,20.79765
3641.003,20.76131
3642.931,20.72149
3644.86,20.66287
3646.788,20.58384
3648.717,20.52713
3650.645,20.53182
3652.574,20.55261
3654.502,20.53153
3656.431,20.49611
3658.359,20.48067
3660.288,20.45571
3662.216,20.42341
3664.145,20.39132
3666.073,20.35731
3668.002,20.30505
3669.93,20.25205
3671.859,20.23674
3673.787,20.19812
3675.716,20.15046
3677.644,20.15497
3679.573,20.14371
3681.501,20.12252
3683.43,20.09564
3685.358,20.06051
3687.287,19.99984
3689.215,19.9694
3691.144,19.9663
3693.072,19.95632
3695.001,19.9365
3696.929,19.91199
3698.858,19.88482
3700.786,19.85222
3702.715,19.82932
3704.643,19.81168
3706.572,19.78321
3708.5,19.74513
3710.429,19.70215
3712.357,19.67405
3714.286,19.66721
3716.214,19.64613
3718.143,19.61149
3720.071,19.57368
3722,19.53358
3723.928,19.49262
3725.857,19.44756
3727.785,19.40606
3729.714,19.35302
3731.642,19.28508
3733.571,19.23628
3735.499,19.19559
3737.427,19.19365
3739.356,19.21677
3741.285,19.22862
3743.213,19.20254
3745.142,19.22009
3747.07,19.26626
3748.999,19.24962
3750.927,19.24006
3752.855,19.25393
3754.784,19.27836
3756.713,19.26744
3758.641,19.24964
3760.57,19.23472
3762.498,19.22584
3764.427,19.19881
3766.355,19.17809
3768.283,19.15187
3770.212,19.12868
3772.141,19.11506
3774.069,19.09757
3775.998,19.07034
3777.926,19.04001
3779.854,19.01298
3781.783,18.99475
3783.711,18.96782
3785.64,18.94541
3787.569,18.92084
3789.497,18.8966
3791.426,18.87079
3793.354,18.84355
3795.282,18.80803
3797.211,18.78307
3799.139,18.74287
3801.068,18.69322
3802.997,18.68927
3804.925,18.67174
3806.854,18.63238
3808.782,18.6268
3810.71,18.61044
3812.639,18.57982
3814.567,18.52502
3816.496,18.493
3818.425,18.48411
3820.353,18.44659
3822.281,18.42816
3824.21,18.42026
3826.138,18.39421
3828.067,18.37089
3829.995,18.33874
3831.924,18.30913
3833.853,18.2803
3835.781,18.23588
3837.709,18.19482
3839.638,18.1903
3841.566,18.17714
3843.495,18.15684
3845.423,18.13672
3847.352,18.11386
3849.281,18.07725
3851.209,18.01301
3853.137,17.94552
3855.066,17.95366
3856.994,17.97556
3858.923,17.95822
3860.851,17.92751
3862.78,17.89596
3864.708,17.86417
3866.637,17.84608
3868.565,17.80738
3870.494,17.77932
3872.422,17.77142
3874.351,17.75078
3876.279,17.73209
3878.208,17.70382
3880.136,17.67275
3882.065,17.65135
3883.993,17.61819
3885.922,17.59006
3887.85,17.57991
3889.779,17.55072
3891.707,17.52413
3893.636,17.50961
3895.564,17.48824
3897.493,17.4573
3899.421,17.42156
3901.35,17.39396
3903.278,17.36979
3905.207,17.35395
3907.135,17.3411
3909.064,17.32287
3910.992,17.29772
3912.921,17.2732
3914.849,17.24667
3916.778,17.21702
3918.706,17.1938
3920.635,17.17541
3922.563,17.15196
3924.492,17.12641
3926.42,17.10615
3928.349,17.08282
3930.277,17.05504
3932.206,17.03166
3934.134,17.0109
3936.063,16.98937
3937.991,16.96714
3939.92,16.94241
3941.848,16.91495
3943.777,16.89471
3945.705,16.87197
3947.634,16.84621
3949.562,16.82434
3951.491,16.80309
3953.419,16.77925
3955.348,16.75773
3957.276,16.73478
3959.205,16.71075
3961.133,16.68809
3963.062,16.66628
3964.99,16.64244
3966.919,16.62077
3968.847,16.59779
3970.776,16.57416
3972.704,16.55203
3974.633,16.52997
3976.561,16.50574
3978.49,16.48494
3980.418,16.46266
3982.347,16.43864
3984.275,16.41677
3986.204,16.39564
3988.132,16.37123
3990.061,16.3498
3991.989,16.3283
3993.918,16.30513
3995.846,16.28312
3997.775,16.26223
3999.703,16.23843
