3.991989e+002;2.406912e+000
4.011274e+002;2.562956e+000
4.030559e+002;2.723873e+000
4.049844e+002;2.885456e+000
4.069129e+002;3.057737e+000
4.088414e+002;3.227482e+000
4.107699e+002;3.404634e+000
4.126984e+002;3.584771e+000
4.146269e+002;3.770262e+000
4.165554e+002;3.949872e+000
4.184839e+002;4.125108e+000
4.204124e+002;4.306670e+000
4.223409e+002;4.493560e+000
4.242694e+002;4.675565e+000
4.261979e+002;4.853881e+000
4.281264e+002;5.017695e+000
4.300549e+002;5.185761e+000
4.319834e+002;5.355256e+000
4.339119e+002;5.518620e+000
4.358404e+002;5.669833e+000
4.377689e+002;5.824781e+000
4.396974e+002;5.971926e+000
4.416259e+002;6.111320e+000
4.435544e+002;6.246774e+000
4.454829e+002;6.374794e+000
4.474114e+002;6.489298e+000
4.493399e+002;6.602485e+000
4.512684e+002;6.707357e+000
4.531969e+002;6.805995e+000
4.551254e+002;6.902368e+000
4.570539e+002;6.993480e+000
4.589824e+002;7.084467e+000
4.609109e+002;7.183198e+000
4.628394e+002;7.276715e+000
4.647679e+002;7.374112e+000
4.666964e+002;7.479490e+000
4.686248e+002;7.600242e+000
4.705533e+002;7.720904e+000
4.724818e+002;7.846687e+000
4.744103e+002;7.975554e+000
4.763388e+002;8.109522e+000
4.782673e+002;8.251262e+000
4.801958e+002;8.403017e+000
4.821243e+002;8.548269e+000
4.840528e+002;8.695441e+000
4.859813e+002;8.842563e+000
4.879098e+002;8.982346e+000
4.898383e+002;9.123711e+000
4.917668e+002;9.271021e+000
4.936953e+002;9.408866e+000
4.956238e+002;9.550292e+000
4.975523e+002;9.691478e+000
4.994808e+002;9.824685e+000
5.014093e+002;9.950446e+000
5.033378e+002;1.007274e+001
5.052663e+002;1.018426e+001
5.071948e+002;1.029013e+001
5.091233e+002;1.039756e+001
5.110518e+002;1.050195e+001
5.129803e+002;1.060263e+001
5.149088e+002;1.070487e+001
5.168373e+002;1.079844e+001
5.187657e+002;1.089086e+001
5.206943e+002;1.099100e+001
5.226227e+002;1.109019e+001
5.245513e+002;1.118521e+001
5.264797e+002;1.128856e+001
5.284083e+002;1.139512e+001
5.303367e+002;1.150116e+001
5.322653e+002;1.160807e+001
5.341937e+002;1.171403e+001
5.361223e+002;1.181881e+001
5.380507e+002;1.192864e+001
5.399792e+002;1.203580e+001
5.419077e+002;1.213799e+001
5.438362e+002;1.224081e+001
5.457647e+002;1.234778e+001
5.476932e+002;1.245006e+001
5.496217e+002;1.255541e+001
5.515502e+002;1.266695e+001
5.534787e+002;1.277757e+001
5.554072e+002;1.289054e+001
5.573357e+002;1.300697e+001
5.592642e+002;1.312299e+001
5.611927e+002;1.324629e+001
5.631212e+002;1.337231e+001
5.650497e+002;1.349922e+001
5.669782e+002;1.362889e+001
5.689067e+002;1.376529e+001
5.708352e+002;1.389806e+001
5.727637e+002;1.403070e+001
5.746922e+002;1.416784e+001
5.766207e+002;1.430863e+001
5.785492e+002;1.444932e+001
5.804777e+002;1.459039e+001
5.824062e+002;1.473029e+001
5.843347e+002;1.487381e+001
5.862632e+002;1.502316e+001
5.881917e+002;1.517160e+001
5.901202e+002;1.532033e+001
5.920486e+002;1.547390e+001
5.939772e+002;1.562965e+001
5.959056e+002;1.579135e+001
5.978342e+002;1.595861e+001
5.997626e+002;1.612963e+001
6.016912e+002;1.630212e+001
6.036196e+002;1.647134e+001
6.055482e+002;1.663596e+001
6.074766e+002;1.679634e+001
6.094052e+002;1.695233e+001
6.113336e+002;1.710770e+001
6.132621e+002;1.726898e+001
6.151906e+002;1.743106e+001
6.171191e+002;1.758222e+001
6.190476e+002;1.772810e+001
6.209761e+002;1.787748e+001
6.229046e+002;1.802871e+001
6.248331e+002;1.817406e+001
6.267616e+002;1.831841e+001
6.286901e+002;1.846996e+001
6.306186e+002;1.862591e+001
6.325471e+002;1.877613e+001
6.344756e+002;1.892111e+001
6.364041e+002;1.905997e+001
6.383326e+002;1.920271e+001
6.402611e+002;1.934474e+001
6.421896e+002;1.947739e+001
6.441181e+002;1.960481e+001
6.460466e+002;1.972032e+001
6.479751e+002;1.983784e+001
6.499036e+002;1.997561e+001
6.518321e+002;2.010673e+001
6.537606e+002;2.022293e+001
6.556891e+002;2.033359e+001
6.576176e+002;2.044006e+001
6.595461e+002;2.054144e+001
6.614745e+002;2.064277e+001
6.634031e+002;2.074253e+001
6.653315e+002;2.083440e+001
6.672601e+002;2.091318e+001
6.691885e+002;2.101489e+001
6.711171e+002;2.112819e+001
6.730455e+002;2.123007e+001
6.749741e+002;2.133072e+001
6.769025e+002;2.143042e+001
6.788311e+002;2.153070e+001
6.807595e+002;2.162778e+001
6.826880e+002;2.172395e+001
6.846165e+002;2.181980e+001
6.865450e+002;2.191317e+001
6.884735e+002;2.200344e+001
6.904020e+002;2.209551e+001
6.923305e+002;2.218723e+001
6.942590e+002;2.227678e+001
6.961875e+002;2.236557e+001
6.981160e+002;2.245216e+001
7.000445e+002;2.253438e+001
7.019730e+002;2.261548e+001
7.039015e+002;2.269287e+001
7.058300e+002;2.276606e+001
7.077585e+002;2.283638e+001
7.096870e+002;2.290457e+001
7.116155e+002;2.296984e+001
7.135440e+002;2.303334e+001
7.154725e+002;2.309199e+001
7.174010e+002;2.314574e+001
7.193295e+002;2.319805e+001
7.212580e+002;2.324918e+001
7.231865e+002;2.329944e+001
7.251150e+002;2.335055e+001
7.270435e+002;2.339865e+001
7.289720e+002;2.344701e+001
7.309005e+002;2.349948e+001
7.328290e+002;2.355162e+001
7.347574e+002;2.360136e+001
7.366860e+002;2.365399e+001
7.386144e+002;2.370715e+001
7.405430e+002;2.376121e+001
7.424714e+002;2.382054e+001
7.444000e+002;2.388059e+001
7.463284e+002;2.393999e+001
7.482570e+002;2.400217e+001
7.501854e+002;2.406634e+001
7.521140e+002;2.412966e+001
7.540424e+002;2.419463e+001
7.559709e+002;2.426139e+001
7.578994e+002;2.432563e+001
7.598279e+002;2.438974e+001
7.617564e+002;2.445286e+001
7.636849e+002;2.451255e+001
7.656134e+002;2.456958e+001
7.675419e+002;2.462491e+001
7.694704e+002;2.467570e+001
7.713989e+002;2.472230e+001
7.733274e+002;2.476434e+001
7.752559e+002;2.480343e+001
7.771844e+002;2.484130e+001
7.791129e+002;2.487609e+001
7.810414e+002;2.490487e+001
7.829699e+002;2.493081e+001
7.848984e+002;2.495098e+001
7.868269e+002;2.496181e+001
7.887554e+002;2.496674e+001
7.906839e+002;2.496980e+001
7.926124e+002;2.497449e+001
7.945409e+002;2.498667e+001
7.964694e+002;2.500857e+001
7.983979e+002;2.503846e+001
8.003264e+002;2.507829e+001
8.022549e+002;2.512837e+001
8.041833e+002;2.518482e+001
8.061119e+002;2.524897e+001
8.080403e+002;2.532023e+001
8.099689e+002;2.539327e+001
8.118973e+002;2.546744e+001
8.138259e+002;2.554311e+001
8.157543e+002;2.561497e+001
8.176829e+002;2.568361e+001
8.196113e+002;2.575330e+001
8.215399e+002;2.582688e+001
8.234683e+002;2.590640e+001
8.253969e+002;2.599236e+001
8.273253e+002;2.607924e+001
8.292538e+002;2.616249e+001
8.311823e+002;2.624136e+001
8.331108e+002;2.631516e+001
8.350393e+002;2.638591e+001
8.369678e+002;2.645816e+001
8.388963e+002;2.652961e+001
8.408248e+002;2.660001e+001
8.427533e+002;2.667277e+001
8.446818e+002;2.674763e+001
8.466103e+002;2.682188e+001
8.485388e+002;2.689507e+001
8.504673e+002;2.696539e+001
8.523958e+002;2.703111e+001
8.543243e+002;2.709274e+001
8.562528e+002;2.715153e+001
8.581813e+002;2.720708e+001
8.601098e+002;2.726423e+001
8.620383e+002;2.732641e+001
8.639668e+002;2.739354e+001
8.658953e+002;2.746887e+001
8.678238e+002;2.755469e+001
8.697523e+002;2.764664e+001
8.716808e+002;2.774149e+001
8.736093e+002;2.783684e+001
8.755378e+002;2.793221e+001
8.774662e+002;2.802903e+001
8.793948e+002;2.812695e+001
8.813232e+002;2.822428e+001
8.832518e+002;2.832060e+001
8.851802e+002;2.841622e+001
8.871088e+002;2.850966e+001
8.890372e+002;2.860263e+001
8.909658e+002;2.869809e+001
8.928942e+002;2.879494e+001
8.948227e+002;2.889234e+001
8.967512e+002;2.899334e+001
8.986797e+002;2.909621e+001
9.006082e+002;2.920072e+001
9.025367e+002;2.930947e+001
9.044652e+002;2.942062e+001
9.063937e+002;2.953298e+001
9.083222e+002;2.964657e+001
9.102507e+002;2.976122e+001
9.121792e+002;2.987494e+001
9.141077e+002;2.998792e+001
9.160362e+002;3.009917e+001
9.179647e+002;3.021012e+001
9.198932e+002;3.032496e+001
9.218217e+002;3.044679e+001
9.237502e+002;3.057467e+001
9.256786e+002;3.070711e+001
9.276072e+002;3.084150e+001
9.295356e+002;3.097461e+001
9.314642e+002;3.110588e+001
9.333926e+002;3.123396e+001
9.353212e+002;3.135876e+001
9.372496e+002;3.147955e+001
9.391782e+002;3.159891e+001
9.411066e+002;3.171490e+001
9.430352e+002;3.182955e+001
9.449636e+002;3.194401e+001
9.468922e+002;3.205544e+001
9.488206e+002;3.216280e+001
9.507491e+002;3.227086e+001
9.526776e+002;3.237609e+001
9.546061e+002;3.247386e+001
9.565346e+002;3.256230e+001
9.584631e+002;3.264339e+001
9.603916e+002;3.272306e+001
9.623201e+002;3.280894e+001
9.642486e+002;3.290877e+001
9.661771e+002;3.302334e+001
9.681056e+002;3.314509e+001
9.700341e+002;3.326345e+001
9.719626e+002;3.337189e+001
9.738911e+002;3.347644e+001
9.758196e+002;3.358603e+001
9.777481e+002;3.369551e+001
9.796766e+002;3.379053e+001
9.816051e+002;3.387015e+001
9.835336e+002;3.393926e+001
9.854621e+002;3.400286e+001
9.873906e+002;3.406211e+001
9.893191e+002;3.411879e+001
9.912476e+002;3.417651e+001
9.931761e+002;3.423856e+001
9.951046e+002;3.430562e+001
9.970331e+002;3.437775e+001
9.989615e+002;3.444806e+001
1.000890e+003;3.450769e+001
1.002819e+003;3.455206e+001
1.004747e+003;3.457845e+001
1.006676e+003;3.458516e+001
1.008604e+003;3.457634e+001
1.010533e+003;3.455437e+001
1.012461e+003;3.452294e+001
1.014390e+003;3.448977e+001
1.016318e+003;3.446207e+001
1.018247e+003;3.444486e+001
1.020175e+003;3.444229e+001
1.022104e+003;3.445250e+001
1.024032e+003;3.447058e+001
1.025961e+003;3.449281e+001
1.027889e+003;3.451571e+001
1.029818e+003;3.453613e+001
1.031746e+003;3.455335e+001
1.033675e+003;3.456496e+001
1.035603e+003;3.456988e+001
1.037531e+003;3.456903e+001
1.039460e+003;3.456320e+001
1.041389e+003;3.455091e+001
1.043317e+003;3.453582e+001
1.045245e+003;3.452069e+001
1.047174e+003;3.450600e+001
1.049103e+003;3.449331e+001
1.051031e+003;3.448246e+001
1.052959e+003;3.447104e+001
1.054888e+003;3.446087e+001
1.056817e+003;3.445224e+001
1.058745e+003;3.444510e+001
1.060673e+003;3.444062e+001
1.062602e+003;3.443946e+001
1.064531e+003;3.443824e+001
1.066459e+003;3.443831e+001
1.068387e+003;3.444139e+001
1.070316e+003;3.444676e+001
1.072245e+003;3.444729e+001
1.074173e+003;3.444953e+001
1.076101e+003;3.447864e+001
1.078030e+003;3.453083e+001
1.079958e+003;3.460020e+001
1.081887e+003;3.473723e+001
1.083815e+003;3.491250e+001
1.085744e+003;3.506173e+001
1.087672e+003;3.517941e+001
1.089601e+003;3.527962e+001
1.091529e+003;3.537055e+001
1.093458e+003;3.545852e+001
1.095386e+003;3.554733e+001
1.097315e+003;3.564158e+001
1.099243e+003;3.574103e+001
1.101172e+003;3.584615e+001
1.103100e+003;3.595689e+001
1.105029e+003;3.607387e+001
1.106957e+003;3.619496e+001
1.108886e+003;3.632111e+001
1.110814e+003;3.645046e+001
1.112743e+003;3.658097e+001
1.114671e+003;3.671211e+001
1.116600e+003;3.684465e+001
1.118528e+003;3.697444e+001
1.120457e+003;3.710273e+001
1.122385e+003;3.722880e+001
1.124314e+003;3.735149e+001
1.126242e+003;3.746953e+001
1.128171e+003;3.758538e+001
1.130099e+003;3.769770e+001
1.132028e+003;3.780842e+001
1.133956e+003;3.791627e+001
1.135885e+003;3.802044e+001
1.137813e+003;3.810962e+001
1.139742e+003;3.817167e+001
1.141670e+003;3.822278e+001
1.143599e+003;3.830832e+001
1.145527e+003;3.840705e+001
1.147456e+003;3.848193e+001
1.149384e+003;3.854884e+001
1.151313e+003;3.868237e+001
1.153241e+003;3.888991e+001
1.155170e+003;3.908997e+001
1.157098e+003;3.925445e+001
1.159027e+003;3.939935e+001
1.160955e+003;3.953219e+001
1.162884e+003;3.965607e+001
1.164812e+003;3.977469e+001
1.166741e+003;3.990123e+001
1.168669e+003;4.002547e+001
1.170598e+003;4.013813e+001
1.172526e+003;4.023799e+001
1.174455e+003;4.032392e+001
1.176383e+003;4.035628e+001
1.178312e+003;4.027546e+001
1.180240e+003;4.020337e+001
1.182169e+003;4.045979e+001
1.184097e+003;4.084879e+001
1.186026e+003;4.107508e+001
1.187954e+003;4.121553e+001
1.189883e+003;4.133013e+001
1.191811e+003;4.143476e+001
1.193740e+003;4.152874e+001
1.195668e+003;4.161948e+001
1.197597e+003;4.170826e+001
1.199525e+003;4.179969e+001
1.201454e+003;4.188619e+001
1.203382e+003;4.196933e+001
1.205311e+003;4.204820e+001
1.207239e+003;4.212482e+001
1.209168e+003;4.219670e+001
1.211096e+003;4.226723e+001
1.213025e+003;4.233635e+001
1.214953e+003;4.240686e+001
1.216882e+003;4.247692e+001
1.218810e+003;4.254666e+001
1.220739e+003;4.261481e+001
1.222667e+003;4.268245e+001
1.224596e+003;4.274788e+001
1.226524e+003;4.281292e+001
1.228453e+003;4.287777e+001
1.230381e+003;4.294330e+001
1.232310e+003;4.300722e+001
1.234238e+003;4.307183e+001
1.236167e+003;4.313470e+001
1.238095e+003;4.319555e+001
1.240024e+003;4.325430e+001
1.241952e+003;4.330983e+001
1.243881e+003;4.335838e+001
1.245809e+003;4.340335e+001
1.247738e+003;4.344376e+001
1.249666e+003;4.347700e+001
1.251595e+003;4.349882e+001
1.253523e+003;4.350053e+001
1.255452e+003;4.347121e+001
1.257380e+003;4.341670e+001
1.259309e+003;4.335954e+001
1.261237e+003;4.333566e+001
1.263166e+003;4.337367e+001
1.265094e+003;4.347825e+001
1.267023e+003;4.362986e+001
1.268951e+003;4.379490e+001
1.270880e+003;4.393566e+001
1.272808e+003;4.404504e+001
1.274737e+003;4.413374e+001
1.276665e+003;4.420902e+001
1.278594e+003;4.426996e+001
1.280522e+003;4.431859e+001
1.282451e+003;4.436077e+001
1.284379e+003;4.439924e+001
1.286308e+003;4.443414e+001
1.288236e+003;4.446930e+001
1.290165e+003;4.450433e+001
1.292093e+003;4.453793e+001
1.294022e+003;4.456993e+001
1.295950e+003;4.460045e+001
1.297879e+003;4.463096e+001
1.299807e+003;4.466304e+001
1.301736e+003;4.469392e+001
1.303664e+003;4.472460e+001
1.305593e+003;4.475703e+001
1.307521e+003;4.479107e+001
1.309450e+003;4.482380e+001
1.311378e+003;4.485563e+001
1.313307e+003;4.488566e+001
1.315235e+003;4.491447e+001
1.317164e+003;4.493900e+001
1.319092e+003;4.496285e+001
1.321021e+003;4.498788e+001
1.322949e+003;4.501246e+001
1.324878e+003;4.503542e+001
1.326806e+003;4.505804e+001
1.328735e+003;4.508041e+001
1.330663e+003;4.510043e+001
1.332592e+003;4.511782e+001
1.334520e+003;4.513621e+001
1.336449e+003;4.515143e+001
1.338377e+003;4.516373e+001
1.340306e+003;4.518139e+001
1.342234e+003;4.520516e+001
1.344163e+003;4.521832e+001
1.346091e+003;4.522467e+001
1.348020e+003;4.523009e+001
1.349948e+003;4.523891e+001
1.351877e+003;4.525174e+001
1.353805e+003;4.526672e+001
1.355734e+003;4.528176e+001
1.357662e+003;4.529843e+001
1.359591e+003;4.530733e+001
1.361519e+003;4.530737e+001
1.363448e+003;4.531914e+001
1.365376e+003;4.534454e+001
1.367305e+003;4.535466e+001
1.369233e+003;4.536119e+001
1.371161e+003;4.536590e+001
1.373090e+003;4.535703e+001
1.375019e+003;4.535646e+001
1.376947e+003;4.536984e+001
1.378875e+003;4.537308e+001
1.380804e+003;4.536631e+001
1.382733e+003;4.534506e+001
1.384661e+003;4.534408e+001
1.386589e+003;4.536731e+001
1.388518e+003;4.541953e+001
1.390447e+003;4.546871e+001
1.392375e+003;4.547531e+001
1.394303e+003;4.546335e+001
1.396232e+003;4.548395e+001
1.398161e+003;4.549939e+001
1.400089e+003;4.552423e+001
1.402017e+003;4.556181e+001
1.403946e+003;4.557568e+001
1.405875e+003;4.559986e+001
1.407803e+003;4.563312e+001
1.409731e+003;4.565454e+001
1.411660e+003;4.567529e+001
1.413589e+003;4.569664e+001
1.415517e+003;4.570858e+001
1.417445e+003;4.568590e+001
1.419374e+003;4.567608e+001
1.421302e+003;4.574956e+001
1.423231e+003;4.579471e+001
1.425159e+003;4.581716e+001
1.427088e+003;4.583638e+001
1.429016e+003;4.583539e+001
1.430945e+003;4.584645e+001
1.432873e+003;4.586041e+001
1.434802e+003;4.582523e+001
1.436730e+003;4.578467e+001
1.438659e+003;4.583898e+001
1.440587e+003;4.587131e+001
1.442516e+003;4.587118e+001
1.444444e+003;4.586579e+001
1.446373e+003;4.584998e+001
1.448301e+003;4.583895e+001
1.450230e+003;4.585049e+001
1.452158e+003;4.584388e+001
1.454087e+003;4.580264e+001
1.456015e+003;4.568685e+001
1.457944e+003;4.569442e+001
1.459872e+003;4.580051e+001
1.461801e+003;4.583937e+001
1.463729e+003;4.582050e+001
1.465658e+003;4.583123e+001
1.467586e+003;4.588119e+001
1.469515e+003;4.589405e+001
1.471443e+003;4.585917e+001
1.473372e+003;4.587114e+001
1.475300e+003;4.594199e+001
1.477229e+003;4.599140e+001
1.479157e+003;4.602789e+001
1.481086e+003;4.603805e+001
1.483014e+003;4.605437e+001
1.484943e+003;4.605540e+001
1.486871e+003;4.603840e+001
1.488800e+003;4.602077e+001
1.490728e+003;4.603325e+001
1.492657e+003;4.607286e+001
1.494585e+003;4.604818e+001
1.496514e+003;4.600875e+001
1.498442e+003;4.604451e+001
1.500371e+003;4.608485e+001
1.502299e+003;4.609829e+001
1.504228e+003;4.600661e+001
1.506156e+003;4.589049e+001
1.508085e+003;4.595369e+001
1.510013e+003;4.605309e+001
1.511942e+003;4.606878e+001
1.513870e+003;4.607401e+001
1.515799e+003;4.604784e+001
1.517727e+003;4.603445e+001
1.519656e+003;4.598805e+001
1.521584e+003;4.594875e+001
1.523513e+003;4.601263e+001
1.525441e+003;4.603434e+001
1.527370e+003;4.605170e+001
1.529298e+003;4.607316e+001
1.531227e+003;4.606262e+001
1.533155e+003;4.602508e+001
1.535084e+003;4.605117e+001
1.537012e+003;4.601503e+001
1.538941e+003;4.587790e+001
1.540869e+003;4.588039e+001
1.542798e+003;4.597336e+001
1.544726e+003;4.602820e+001
1.546655e+003;4.607121e+001
1.548583e+003;4.608339e+001
1.550512e+003;4.608051e+001
1.552440e+003;4.606377e+001
1.554369e+003;4.602821e+001
1.556297e+003;4.597731e+001
1.558226e+003;4.584122e+001
1.560154e+003;4.587842e+001
1.562083e+003;4.604602e+001
1.564011e+003;4.609468e+001
1.565940e+003;4.609596e+001
1.567868e+003;4.607164e+001
1.569797e+003;4.604480e+001
1.571725e+003;4.608365e+001
1.573654e+003;4.606219e+001
1.575582e+003;4.596223e+001
1.577511e+003;4.600266e+001
1.579439e+003;4.608326e+001
1.581368e+003;4.608458e+001
1.583296e+003;4.608199e+001
1.585225e+003;4.607552e+001
1.587153e+003;4.607099e+001
1.589082e+003;4.606049e+001
1.591010e+003;4.605454e+001
1.592939e+003;4.604397e+001
1.594867e+003;4.603654e+001
1.596796e+003;4.602868e+001
1.598724e+003;4.602123e+001
1.600653e+003;4.600672e+001
1.602581e+003;4.599376e+001
1.604510e+003;4.597507e+001
1.606438e+003;4.594920e+001
1.608367e+003;4.591236e+001
1.610295e+003;4.588512e+001
1.612224e+003;4.586074e+001
1.614152e+003;4.578846e+001
1.616081e+003;4.563096e+001
1.618009e+003;4.557472e+001
1.619938e+003;4.560052e+001
1.621866e+003;4.562495e+001
1.623795e+003;4.568635e+001
1.625723e+003;4.576167e+001
1.627652e+003;4.579184e+001
1.629580e+003;4.581513e+001
1.631509e+003;4.582722e+001
1.633437e+003;4.576928e+001
1.635366e+003;4.569427e+001
1.637294e+003;4.575327e+001
1.639223e+003;4.581833e+001
1.641151e+003;4.582701e+001
1.643080e+003;4.581144e+001
1.645008e+003;4.573639e+001
1.646937e+003;4.571000e+001
1.648865e+003;4.576353e+001
1.650794e+003;4.567392e+001
1.652722e+003;4.550382e+001
1.654651e+003;4.561996e+001
1.656579e+003;4.576861e+001
1.658508e+003;4.578601e+001
1.660436e+003;4.576408e+001
1.662365e+003;4.572984e+001
1.664293e+003;4.574254e+001
1.666222e+003;4.574794e+001
1.668150e+003;4.569346e+001
1.670079e+003;4.567179e+001
1.672007e+003;4.569909e+001
1.673936e+003;4.567047e+001
1.675864e+003;4.565481e+001
1.677793e+003;4.570055e+001
1.679721e+003;4.569527e+001
1.681650e+003;4.564339e+001
1.683578e+003;4.550573e+001
1.685507e+003;4.552401e+001
1.687435e+003;4.564634e+001
1.689364e+003;4.566754e+001
1.691292e+003;4.567091e+001
1.693221e+003;4.562791e+001
1.695149e+003;4.550283e+001
1.697078e+003;4.550838e+001
1.699006e+003;4.548232e+001
1.700935e+003;4.546083e+001
1.702863e+003;4.556600e+001
1.704792e+003;4.556097e+001
1.706720e+003;4.556128e+001
1.708649e+003;4.556396e+001
1.710577e+003;4.555863e+001
1.712505e+003;4.552153e+001
1.714434e+003;4.545906e+001
1.716363e+003;4.535677e+001
1.718291e+003;4.534379e+001
1.720219e+003;4.541353e+001
1.722148e+003;4.541806e+001
1.724077e+003;4.538316e+001
1.726005e+003;4.535305e+001
1.727933e+003;4.530636e+001
1.729862e+003;4.525454e+001
1.731791e+003;4.515895e+001
1.733719e+003;4.505013e+001
1.735647e+003;4.510773e+001
1.737576e+003;4.517838e+001
1.739505e+003;4.517530e+001
1.741433e+003;4.522472e+001
1.743361e+003;4.527242e+001
1.745290e+003;4.530943e+001
1.747219e+003;4.532253e+001
1.749147e+003;4.531810e+001
1.751075e+003;4.531217e+001
1.753004e+003;4.536446e+001
1.754932e+003;4.538502e+001
1.756861e+003;4.537560e+001
1.758789e+003;4.538232e+001
1.760718e+003;4.536185e+001
1.762646e+003;4.535699e+001
1.764575e+003;4.538004e+001
1.766503e+003;4.535653e+001
1.768432e+003;4.533366e+001
1.770360e+003;4.530475e+001
1.772289e+003;4.526227e+001
1.774217e+003;4.529978e+001
1.776146e+003;4.533495e+001
1.778074e+003;4.532996e+001
1.780003e+003;4.531654e+001
1.781931e+003;4.531043e+001
1.783860e+003;4.529977e+001
1.785788e+003;4.529270e+001
1.787717e+003;4.529712e+001
1.789645e+003;4.527039e+001
1.791574e+003;4.522569e+001
1.793502e+003;4.522747e+001
1.795431e+003;4.525702e+001
1.797359e+003;4.524974e+001
1.799288e+003;4.523312e+001
1.801216e+003;4.521979e+001
1.803145e+003;4.522576e+001
1.805073e+003;4.522265e+001
1.807002e+003;4.521364e+001
1.808930e+003;4.519539e+001
1.810859e+003;4.518374e+001
1.812787e+003;4.517710e+001
1.814716e+003;4.517219e+001
1.816644e+003;4.515598e+001
1.818573e+003;4.514607e+001
1.820501e+003;4.513176e+001
1.822430e+003;4.511436e+001
1.824358e+003;4.508110e+001
1.826287e+003;4.506963e+001
1.828215e+003;4.504712e+001
1.830144e+003;4.502169e+001
1.832072e+003;4.502428e+001
1.834001e+003;4.501845e+001
1.835929e+003;4.499589e+001
1.837858e+003;4.497676e+001
1.839786e+003;4.495710e+001
1.841715e+003;4.491954e+001
1.843643e+003;4.485854e+001
1.845572e+003;4.485558e+001
1.847500e+003;4.486083e+001
1.849429e+003;4.484369e+001
1.851357e+003;4.482270e+001
1.853286e+003;4.479928e+001
1.855214e+003;4.477375e+001
1.857143e+003;4.474937e+001
1.859071e+003;4.472279e+001
1.861000e+003;4.469785e+001
1.862928e+003;4.467262e+001
1.864857e+003;4.464496e+001
1.866785e+003;4.460349e+001
1.868714e+003;4.456434e+001
1.870642e+003;4.455398e+001
1.872571e+003;4.454709e+001
1.874499e+003;4.452343e+001
1.876428e+003;4.450020e+001
1.878356e+003;4.447416e+001
1.880285e+003;4.445105e+001
1.882213e+003;4.442586e+001
1.884142e+003;4.440232e+001
1.886070e+003;4.437731e+001
1.887999e+003;4.434785e+001
1.889927e+003;4.431941e+001
1.891856e+003;4.430679e+001
1.893784e+003;4.428344e+001
1.895713e+003;4.426094e+001
1.897641e+003;4.424027e+001
1.899570e+003;4.422090e+001
1.901498e+003;4.419673e+001
1.903427e+003;4.417543e+001
1.905355e+003;4.415204e+001
1.907284e+003;4.412958e+001
1.909212e+003;4.410434e+001
1.911141e+003;4.408657e+001
1.913069e+003;4.406589e+001
1.914998e+003;4.404245e+001
1.916926e+003;4.400543e+001
1.918855e+003;4.398488e+001
1.920783e+003;4.397284e+001
1.922712e+003;4.395082e+001
1.924640e+003;4.393233e+001
1.926569e+003;4.391468e+001
1.928497e+003;4.389240e+001
1.930426e+003;4.387100e+001
1.932354e+003;4.384774e+001
1.934283e+003;4.382701e+001
1.936211e+003;4.380416e+001
1.938140e+003;4.378217e+001
1.940068e+003;4.375495e+001
1.941997e+003;4.372567e+001
1.943925e+003;4.370507e+001
1.945854e+003;4.368823e+001
1.947782e+003;4.366501e+001
1.949711e+003;4.364293e+001
1.951639e+003;4.361912e+001
1.953568e+003;4.359634e+001
1.955496e+003;4.356920e+001
1.957425e+003;4.353805e+001
1.959353e+003;4.351031e+001
1.961282e+003;4.349553e+001
1.963210e+003;4.347303e+001
1.965139e+003;4.344813e+001
1.967067e+003;4.341993e+001
1.968996e+003;4.340000e+001
1.970924e+003;4.337650e+001
1.972853e+003;4.335212e+001
1.974781e+003;4.332572e+001
1.976710e+003;4.330177e+001
1.978638e+003;4.327449e+001
1.980567e+003;4.324997e+001
1.982495e+003;4.322332e+001
1.984424e+003;4.319848e+001
1.986352e+003;4.317051e+001
1.988281e+003;4.314399e+001
1.990209e+003;4.311304e+001
1.992138e+003;4.308574e+001
1.994066e+003;4.306199e+001
1.995995e+003;4.303817e+001
1.997923e+003;4.301046e+001
1.999852e+003;4.298487e+001
2.001780e+003;4.295694e+001
2.003709e+003;4.293172e+001
2.005637e+003;4.290397e+001
2.007566e+003;4.287808e+001
2.009494e+003;4.285006e+001
2.011423e+003;4.282470e+001
2.013351e+003;4.279682e+001
2.015280e+003;4.276902e+001
2.017208e+003;4.273989e+001
2.019137e+003;4.271691e+001
2.021065e+003;4.269053e+001
2.022994e+003;4.266537e+001
2.024922e+003;4.263801e+001
2.026851e+003;4.261138e+001
2.028779e+003;4.258291e+001
2.030708e+003;4.256005e+001
2.032636e+003;4.253398e+001
2.034565e+003;4.251004e+001
2.036493e+003;4.248352e+001
2.038422e+003;4.245893e+001
2.040350e+003;4.243283e+001
2.042279e+003;4.240951e+001
2.044207e+003;4.238354e+001
2.046135e+003;4.236045e+001
2.048064e+003;4.233528e+001
2.049992e+003;4.231156e+001
2.051921e+003;4.228701e+001
2.053850e+003;4.226470e+001
2.055778e+003;4.223970e+001
2.057707e+003;4.221733e+001
2.059635e+003;4.219240e+001
2.061563e+003;4.217097e+001
2.063492e+003;4.214576e+001
2.065420e+003;4.212352e+001
2.067349e+003;4.210072e+001
2.069278e+003;4.207948e+001
2.071206e+003;4.205550e+001
2.073135e+003;4.203311e+001
2.075063e+003;4.201035e+001
2.076991e+003;4.198778e+001
2.078920e+003;4.196447e+001
2.080848e+003;4.194193e+001
2.082777e+003;4.191801e+001
2.084706e+003;4.189683e+001
2.086634e+003;4.187157e+001
2.088563e+003;4.185102e+001
2.090491e+003;4.182549e+001
2.092419e+003;4.180517e+001
2.094348e+003;4.177921e+001
2.096276e+003;4.176011e+001
2.098205e+003;4.173419e+001
2.100134e+003;4.171383e+001
2.102062e+003;4.168938e+001
2.103990e+003;4.166693e+001
2.105919e+003;4.164309e+001
2.107847e+003;4.162017e+001
2.109776e+003;4.159772e+001
2.111704e+003;4.157481e+001
2.113633e+003;4.155305e+001
2.115562e+003;4.152856e+001
2.117490e+003;4.150814e+001
2.119418e+003;4.148444e+001
2.121347e+003;4.146296e+001
2.123275e+003;4.144078e+001
2.125204e+003;4.141930e+001
2.127132e+003;4.139636e+001
2.129061e+003;4.137482e+001
2.130990e+003;4.135323e+001
2.132918e+003;4.133064e+001
2.134846e+003;4.130954e+001
2.136775e+003;4.128601e+001
2.138703e+003;4.126577e+001
2.140632e+003;4.124331e+001
2.142560e+003;4.122254e+001
2.144489e+003;4.119786e+001
2.146417e+003;4.117470e+001
2.148346e+003;4.114864e+001
2.150274e+003;4.112495e+001
2.152203e+003;4.110013e+001
2.154131e+003;4.107683e+001
2.156060e+003;4.105309e+001
2.157988e+003;4.102993e+001
2.159917e+003;4.100458e+001
2.161845e+003;4.098153e+001
2.163774e+003;4.095662e+001
2.165702e+003;4.093366e+001
2.167631e+003;4.091000e+001
2.169559e+003;4.088634e+001
2.171488e+003;4.086159e+001
2.173416e+003;4.083996e+001
2.175345e+003;4.081544e+001
2.177273e+003;4.079292e+001
2.179202e+003;4.076945e+001
2.181130e+003;4.074689e+001
2.183059e+003;4.072331e+001
2.184987e+003;4.070203e+001
2.186916e+003;4.067776e+001
2.188844e+003;4.065636e+001
2.190773e+003;4.063340e+001
2.192701e+003;4.061138e+001
2.194630e+003;4.058915e+001
2.196558e+003;4.056814e+001
2.198487e+003;4.054383e+001
2.200415e+003;4.052354e+001
2.202344e+003;4.050076e+001
2.204272e+003;4.047837e+001
2.206201e+003;4.045578e+001
2.208129e+003;4.043439e+001
2.210058e+003;4.041017e+001
2.211986e+003;4.038962e+001
2.213915e+003;4.036595e+001
2.215843e+003;4.034383e+001
2.217772e+003;4.032082e+001
2.219700e+003;4.029816e+001
2.221629e+003;4.027387e+001
2.223557e+003;4.025294e+001
2.225486e+003;4.022797e+001
2.227414e+003;4.020543e+001
2.229343e+003;4.018224e+001
2.231271e+003;4.015906e+001
2.233200e+003;4.013449e+001
2.235128e+003;4.011318e+001
2.237057e+003;4.008825e+001
2.238985e+003;4.006593e+001
2.240914e+003;4.004224e+001
2.242842e+003;4.001921e+001
2.244771e+003;3.999514e+001
2.246699e+003;3.997249e+001
2.248628e+003;3.994679e+001
2.250556e+003;3.992511e+001
2.252485e+003;3.990044e+001
2.254413e+003;3.987641e+001
2.256342e+003;3.985249e+001
2.258270e+003;3.982943e+001
2.260199e+003;3.980337e+001
2.262127e+003;3.978106e+001
2.264056e+003;3.975563e+001
2.265984e+003;3.973167e+001
2.267913e+003;3.970681e+001
2.269841e+003;3.968268e+001
2.271770e+003;3.965682e+001
2.273698e+003;3.963398e+001
2.275627e+003;3.960725e+001
2.277555e+003;3.958366e+001
2.279484e+003;3.955882e+001
2.281412e+003;3.953327e+001
2.283341e+003;3.950673e+001
2.285269e+003;3.948278e+001
2.287198e+003;3.945409e+001
2.289126e+003;3.942868e+001
2.291055e+003;3.940186e+001
2.292983e+003;3.937487e+001
2.294912e+003;3.934695e+001
2.296840e+003;3.932096e+001
2.298769e+003;3.929130e+001
2.300697e+003;3.926569e+001
2.302626e+003;3.923701e+001
2.304554e+003;3.920837e+001
2.306483e+003;3.917992e+001
2.308411e+003;3.915147e+001
2.310340e+003;3.911840e+001
2.312268e+003;3.908975e+001
2.314197e+003;3.905733e+001
2.316125e+003;3.902484e+001
2.318054e+003;3.899221e+001
2.319982e+003;3.895987e+001
2.321911e+003;3.892430e+001
2.323839e+003;3.889249e+001
2.325768e+003;3.885732e+001
2.327696e+003;3.882472e+001
2.329625e+003;3.879247e+001
2.331553e+003;3.876131e+001
2.333482e+003;3.873117e+001
2.335410e+003;3.870686e+001
2.337339e+003;3.867950e+001
2.339267e+003;3.865705e+001
2.341196e+003;3.863790e+001
2.343124e+003;3.862344e+001
2.345053e+003;3.861277e+001
2.346981e+003;3.860904e+001
2.348910e+003;3.859151e+001
2.350838e+003;3.855298e+001
2.352767e+003;3.850050e+001
2.354695e+003;3.844952e+001
2.356624e+003;3.840308e+001
2.358552e+003;3.836464e+001
2.360481e+003;3.832827e+001
2.362409e+003;3.830334e+001
2.364338e+003;3.828285e+001
2.366266e+003;3.826792e+001
2.368195e+003;3.825797e+001
2.370123e+003;3.825260e+001
2.372052e+003;3.824393e+001
2.373980e+003;3.823895e+001
2.375908e+003;3.822924e+001
2.377837e+003;3.821833e+001
2.379766e+003;3.820546e+001
2.381694e+003;3.819069e+001
2.383623e+003;3.817099e+001
2.385551e+003;3.815449e+001
2.387479e+003;3.813229e+001
2.389408e+003;3.811095e+001
2.391336e+003;3.808992e+001
2.393265e+003;3.806738e+001
2.395194e+003;3.804146e+001
2.397122e+003;3.801986e+001
2.399051e+003;3.799266e+001
2.400979e+003;3.796714e+001
2.402907e+003;3.794184e+001
2.404836e+003;3.791592e+001
2.406764e+003;3.788874e+001
2.408693e+003;3.786540e+001
2.410622e+003;3.783669e+001
2.412550e+003;3.781127e+001
2.414479e+003;3.778556e+001
2.416407e+003;3.775831e+001
2.418335e+003;3.773098e+001
2.420264e+003;3.770690e+001
2.422192e+003;3.767706e+001
2.424121e+003;3.765115e+001
2.426050e+003;3.762492e+001
2.427978e+003;3.759760e+001
2.429906e+003;3.757012e+001
2.431835e+003;3.754568e+001
2.433763e+003;3.751609e+001
2.435692e+003;3.749063e+001
2.437620e+003;3.746327e+001
2.439549e+003;3.743599e+001
2.441478e+003;3.740941e+001
2.443406e+003;3.738393e+001
2.445334e+003;3.735410e+001
2.447263e+003;3.732952e+001
2.449191e+003;3.730185e+001
2.451120e+003;3.727312e+001
2.453048e+003;3.724632e+001
2.454977e+003;3.722152e+001
2.456906e+003;3.719170e+001
2.458834e+003;3.716673e+001
2.460762e+003;3.713884e+001
2.462691e+003;3.711119e+001
2.464619e+003;3.708421e+001
2.466548e+003;3.705789e+001
2.468476e+003;3.702849e+001
2.470405e+003;3.700414e+001
2.472333e+003;3.697497e+001
2.474262e+003;3.694699e+001
2.476190e+003;3.692078e+001
2.478119e+003;3.689389e+001
2.480047e+003;3.686393e+001
2.481976e+003;3.683950e+001
2.483904e+003;3.681018e+001
2.485833e+003;3.678237e+001
2.487761e+003;3.675567e+001
2.489690e+003;3.672846e+001
2.491618e+003;3.669893e+001
2.493547e+003;3.667372e+001
2.495475e+003;3.664374e+001
2.497404e+003;3.661631e+001
2.499332e+003;3.658913e+001
2.501261e+003;3.656089e+001
2.503189e+003;3.653198e+001
2.505118e+003;3.650775e+001
2.507046e+003;3.647723e+001
2.508975e+003;3.644984e+001
2.510903e+003;3.642292e+001
2.512832e+003;3.639423e+001
2.514760e+003;3.636519e+001
2.516689e+003;3.634045e+001
2.518617e+003;3.630946e+001
2.520546e+003;3.628231e+001
2.522474e+003;3.625544e+001
2.524403e+003;3.622680e+001
2.526331e+003;3.619786e+001
2.528260e+003;3.617229e+001
2.530188e+003;3.614103e+001
2.532117e+003;3.611462e+001
2.534045e+003;3.608648e+001
2.535974e+003;3.605648e+001
2.537902e+003;3.602824e+001
2.539831e+003;3.600259e+001
2.541759e+003;3.597030e+001
2.543688e+003;3.594370e+001
2.545616e+003;3.591580e+001
2.547545e+003;3.588609e+001
2.549473e+003;3.585772e+001
2.551402e+003;3.583149e+001
2.553330e+003;3.579959e+001
2.555259e+003;3.577309e+001
2.557187e+003;3.574440e+001
2.559116e+003;3.571456e+001
2.561044e+003;3.568633e+001
2.562973e+003;3.565910e+001
2.564901e+003;3.562693e+001
2.566830e+003;3.560157e+001
2.568758e+003;3.557253e+001
2.570687e+003;3.554182e+001
2.572615e+003;3.551407e+001
2.574544e+003;3.548740e+001
2.576472e+003;3.545525e+001
2.578401e+003;3.542982e+001
2.580329e+003;3.540084e+001
2.582258e+003;3.537093e+001
2.584186e+003;3.534316e+001
2.586115e+003;3.531579e+001
2.588043e+003;3.528397e+001
2.589972e+003;3.525866e+001
2.591900e+003;3.522906e+001
2.593829e+003;3.519939e+001
2.595757e+003;3.517218e+001
2.597686e+003;3.514388e+001
2.599614e+003;3.511166e+001
2.601543e+003;3.508694e+001
2.603471e+003;3.505727e+001
2.605400e+003;3.502743e+001
2.607328e+003;3.499989e+001
2.609257e+003;3.497174e+001
2.611185e+003;3.494006e+001
2.613114e+003;3.491478e+001
2.615042e+003;3.488461e+001
2.616971e+003;3.485553e+001
2.618899e+003;3.482813e+001
2.620828e+003;3.479961e+001
2.622756e+003;3.476870e+001
2.624685e+003;3.474353e+001
2.626613e+003;3.471228e+001
2.628542e+003;3.468274e+001
2.630470e+003;3.465569e+001
2.632399e+003;3.462666e+001
2.634327e+003;3.459508e+001
2.636256e+003;3.457005e+001
2.638184e+003;3.453917e+001
2.640113e+003;3.450967e+001
2.642041e+003;3.448219e+001
2.643970e+003;3.445349e+001
2.645898e+003;3.442257e+001
2.647827e+003;3.439687e+001
2.649755e+003;3.436579e+001
2.651684e+003;3.433725e+001
2.653612e+003;3.430944e+001
2.655541e+003;3.427964e+001
2.657469e+003;3.424883e+001
2.659398e+003;3.422365e+001
2.661326e+003;3.419183e+001
2.663255e+003;3.416307e+001
2.665183e+003;3.413587e+001
2.667112e+003;3.410627e+001
2.669040e+003;3.407531e+001
2.670969e+003;3.404937e+001
2.672897e+003;3.401764e+001
2.674826e+003;3.398895e+001
2.676754e+003;3.396095e+001
2.678683e+003;3.393140e+001
2.680611e+003;3.390126e+001
2.682540e+003;3.387544e+001
2.684468e+003;3.384346e+001
2.686397e+003;3.381549e+001
2.688325e+003;3.378752e+001
2.690254e+003;3.375702e+001
2.692182e+003;3.372681e+001
2.694111e+003;3.370062e+001
2.696039e+003;3.366776e+001
2.697968e+003;3.363959e+001
2.699896e+003;3.361171e+001
2.701825e+003;3.358122e+001
2.703753e+003;3.355070e+001
2.705682e+003;3.352426e+001
2.707610e+003;3.349187e+001
2.709539e+003;3.346354e+001
2.711467e+003;3.343459e+001
2.713396e+003;3.340404e+001
2.715324e+003;3.337426e+001
2.717253e+003;3.334719e+001
2.719181e+003;3.331403e+001
2.721110e+003;3.328643e+001
2.723038e+003;3.325805e+001
2.724967e+003;3.322652e+001
2.726895e+003;3.319622e+001
2.728823e+003;3.316994e+001
2.730752e+003;3.313692e+001
2.732681e+003;3.310899e+001
2.734609e+003;3.308040e+001
2.736538e+003;3.304961e+001
2.738466e+003;3.302015e+001
2.740395e+003;3.299392e+001
2.742323e+003;3.296122e+001
2.744251e+003;3.293377e+001
2.746180e+003;3.290451e+001
2.748109e+003;3.287326e+001
2.750037e+003;3.284414e+001
2.751966e+003;3.281724e+001
2.753894e+003;3.278371e+001
2.755823e+003;3.275639e+001
2.757751e+003;3.272780e+001
2.759679e+003;3.269654e+001
2.761608e+003;3.266691e+001
2.763537e+003;3.264022e+001
2.765465e+003;3.260705e+001
2.767394e+003;3.257938e+001
2.769322e+003;3.255007e+001
2.771250e+003;3.251780e+001
2.773179e+003;3.248633e+001
2.775107e+003;3.245827e+001
2.777036e+003;3.242611e+001
2.778965e+003;3.239965e+001
2.780893e+003;3.237013e+001
2.782822e+003;3.233810e+001
2.784750e+003;3.230812e+001
2.786678e+003;3.228012e+001
2.788607e+003;3.224592e+001
2.790535e+003;3.221797e+001
2.792464e+003;3.218828e+001
2.794393e+003;3.215617e+001
2.796321e+003;3.212606e+001
2.798250e+003;3.209851e+001
2.800178e+003;3.206464e+001
2.802106e+003;3.203614e+001
2.804035e+003;3.200595e+001
2.805963e+003;3.197402e+001
2.807892e+003;3.194354e+001
2.809821e+003;3.191483e+001
2.811749e+003;3.188057e+001
2.813677e+003;3.185194e+001
2.815606e+003;3.182055e+001
2.817534e+003;3.178701e+001
2.819463e+003;3.175540e+001
2.821391e+003;3.172492e+001
2.823320e+003;3.168832e+001
2.825249e+003;3.165920e+001
2.827177e+003;3.162798e+001
2.829105e+003;3.159337e+001
2.831034e+003;3.155965e+001
2.832962e+003;3.152735e+001
2.834891e+003;3.148825e+001
2.836819e+003;3.145315e+001
2.838748e+003;3.141434e+001
2.840677e+003;3.137210e+001
2.842605e+003;3.132947e+001
2.844533e+003;3.128588e+001
2.846462e+003;3.123537e+001
2.848390e+003;3.119131e+001
2.850319e+003;3.114572e+001
2.852247e+003;3.109912e+001
2.854176e+003;3.105793e+001
2.856104e+003;3.102355e+001
2.858033e+003;3.098771e+001
2.859961e+003;3.096098e+001
2.861890e+003;3.093340e+001
2.863818e+003;3.090395e+001
2.865747e+003;3.087516e+001
2.867675e+003;3.084596e+001
2.869604e+003;3.080920e+001
2.871532e+003;3.077739e+001
2.873461e+003;3.074489e+001
2.875389e+003;3.071403e+001
2.877318e+003;3.068751e+001
2.879246e+003;3.066319e+001
2.881175e+003;3.063337e+001
2.883103e+003;3.060770e+001
2.885032e+003;3.057700e+001
2.886960e+003;3.054299e+001
2.888889e+003;3.051004e+001
2.890817e+003;3.047743e+001
2.892746e+003;3.043762e+001
2.894674e+003;3.040269e+001
2.896603e+003;3.036531e+001
2.898531e+003;3.032595e+001
2.900460e+003;3.028716e+001
2.902388e+003;3.024923e+001
2.904317e+003;3.020589e+001
2.906245e+003;3.016742e+001
2.908174e+003;3.012616e+001
2.910102e+003;3.008300e+001
2.912031e+003;3.004011e+001
2.913959e+003;2.999766e+001
2.915888e+003;2.994908e+001
2.917816e+003;2.990600e+001
2.919745e+003;2.986032e+001
2.921673e+003;2.981374e+001
2.923602e+003;2.977210e+001
2.925530e+003;2.973710e+001
2.927459e+003;2.970201e+001
2.929387e+003;2.967762e+001
2.931316e+003;2.965457e+001
2.933244e+003;2.963288e+001
2.935173e+003;2.961473e+001
2.937101e+003;2.959916e+001
2.939030e+003;2.957911e+001
2.940958e+003;2.956378e+001
2.942887e+003;2.954360e+001
2.944815e+003;2.951849e+001
2.946744e+003;2.949049e+001
2.948672e+003;2.945945e+001
2.950601e+003;2.941780e+001
2.952529e+003;2.937699e+001
2.954458e+003;2.933111e+001
2.956386e+003;2.928112e+001
2.958315e+003;2.923209e+001
2.960243e+003;2.918818e+001
2.962172e+003;2.914382e+001
2.964100e+003;2.911473e+001
2.966029e+003;2.909817e+001
2.967957e+003;2.909458e+001
2.969886e+003;2.910172e+001
2.971814e+003;2.911054e+001
2.973743e+003;2.910811e+001
2.975671e+003;2.910559e+001
2.977600e+003;2.909618e+001
2.979528e+003;2.908197e+001
2.981457e+003;2.906732e+001
2.983385e+003;2.905170e+001
2.985314e+003;2.902772e+001
2.987242e+003;2.900710e+001
2.989171e+003;2.898368e+001
2.991099e+003;2.895656e+001
2.993028e+003;2.892886e+001
2.994956e+003;2.890349e+001
2.996885e+003;2.887227e+001
2.998813e+003;2.884549e+001
3.000742e+003;2.881692e+001
3.002670e+003;2.878558e+001
3.004599e+003;2.875462e+001
3.006527e+003;2.872653e+001
3.008456e+003;2.869279e+001
3.010384e+003;2.866327e+001
3.012313e+003;2.863147e+001
3.014241e+003;2.859743e+001
3.016170e+003;2.856446e+001
3.018098e+003;2.853680e+001
3.020027e+003;2.850418e+001
3.021955e+003;2.847474e+001
3.023884e+003;2.844395e+001
3.025812e+003;2.841041e+001
3.027741e+003;2.837733e+001
3.029669e+003;2.834781e+001
3.031598e+003;2.831264e+001
3.033526e+003;2.828225e+001
3.035455e+003;2.825134e+001
3.037383e+003;2.821853e+001
3.039312e+003;2.818615e+001
3.041240e+003;2.815657e+001
3.043169e+003;2.812113e+001
3.045097e+003;2.809031e+001
3.047026e+003;2.805845e+001
3.048954e+003;2.802469e+001
3.050883e+003;2.799206e+001
3.052811e+003;2.796233e+001
3.054740e+003;2.792589e+001
3.056668e+003;2.789363e+001
3.058597e+003;2.786229e+001
3.060525e+003;2.782882e+001
3.062454e+003;2.779473e+001
3.064382e+003;2.776391e+001
3.066311e+003;2.772717e+001
3.068239e+003;2.769531e+001
3.070167e+003;2.766404e+001
3.072096e+003;2.763020e+001
3.074025e+003;2.759587e+001
3.075953e+003;2.756473e+001
3.077882e+003;2.752893e+001
3.079810e+003;2.749704e+001
3.081739e+003;2.746472e+001
3.083667e+003;2.742994e+001
3.085595e+003;2.739495e+001
3.087524e+003;2.736507e+001
3.089453e+003;2.732914e+001
3.091381e+003;2.729561e+001
3.093310e+003;2.726201e+001
3.095238e+003;2.722679e+001
3.097167e+003;2.719212e+001
3.099095e+003;2.716096e+001
3.101023e+003;2.712425e+001
3.102952e+003;2.709044e+001
3.104881e+003;2.705754e+001
3.106809e+003;2.702355e+001
3.108738e+003;2.698847e+001
3.110666e+003;2.695721e+001
3.112594e+003;2.692025e+001
3.114523e+003;2.688698e+001
3.116451e+003;2.685485e+001
3.118380e+003;2.682033e+001
3.120309e+003;2.678459e+001
3.122237e+003;2.675356e+001
3.124166e+003;2.671803e+001
3.126094e+003;2.668480e+001
3.128022e+003;2.665273e+001
3.129951e+003;2.661914e+001
3.131879e+003;2.658332e+001
3.133808e+003;2.655281e+001
3.135737e+003;2.651765e+001
3.137665e+003;2.648384e+001
3.139594e+003;2.645057e+001
3.141522e+003;2.641658e+001
3.143450e+003;2.638112e+001
3.145379e+003;2.635017e+001
3.147307e+003;2.631431e+001
3.149236e+003;2.628056e+001
3.151165e+003;2.624790e+001
3.153093e+003;2.621387e+001
3.155021e+003;2.617778e+001
3.156950e+003;2.614678e+001
3.158878e+003;2.611124e+001
3.160807e+003;2.607706e+001
3.162735e+003;2.604400e+001
3.164664e+003;2.601007e+001
3.166593e+003;2.597370e+001
3.168521e+003;2.594225e+001
3.170449e+003;2.590630e+001
3.172378e+003;2.587188e+001
3.174306e+003;2.583852e+001
3.176235e+003;2.580368e+001
3.178163e+003;2.576665e+001
3.180092e+003;2.573548e+001
3.182021e+003;2.569967e+001
3.183949e+003;2.566453e+001
3.185877e+003;2.563068e+001
3.187806e+003;2.559612e+001
3.189734e+003;2.555835e+001
3.191663e+003;2.552600e+001
3.193591e+003;2.548950e+001
3.195520e+003;2.545288e+001
3.197448e+003;2.541750e+001
3.199377e+003;2.538196e+001
3.201305e+003;2.534309e+001
3.203234e+003;2.530943e+001
3.205162e+003;2.527280e+001
3.207091e+003;2.523777e+001
3.209019e+003;2.520474e+001
3.210948e+003;2.517256e+001
3.212876e+003;2.513728e+001
3.214805e+003;2.510733e+001
3.216733e+003;2.507383e+001
3.218662e+003;2.504019e+001
3.220590e+003;2.500793e+001
3.222519e+003;2.497545e+001
3.224447e+003;2.493878e+001
3.226376e+003;2.490733e+001
3.228304e+003;2.487288e+001
3.230233e+003;2.483789e+001
3.232161e+003;2.480401e+001
3.234090e+003;2.477095e+001
3.236018e+003;2.473401e+001
3.237947e+003;2.470223e+001
3.239875e+003;2.466746e+001
3.241804e+003;2.463208e+001
3.243732e+003;2.459787e+001
3.245661e+003;2.456493e+001
3.247589e+003;2.452831e+001
3.249518e+003;2.449644e+001
3.251446e+003;2.446164e+001
3.253375e+003;2.442584e+001
3.255303e+003;2.439211e+001
3.257232e+003;2.435971e+001
3.259160e+003;2.432255e+001
3.261089e+003;2.429056e+001
3.263017e+003;2.425666e+001
3.264946e+003;2.422135e+001
3.266874e+003;2.418722e+001
3.268803e+003;2.415518e+001
3.270731e+003;2.411860e+001
3.272660e+003;2.408616e+001
3.274588e+003;2.405201e+001
3.276517e+003;2.401740e+001
3.278445e+003;2.398422e+001
3.280374e+003;2.395266e+001
3.282302e+003;2.391583e+001
3.284231e+003;2.388365e+001
3.286159e+003;2.385029e+001
3.288088e+003;2.381534e+001
3.290016e+003;2.378179e+001
3.291945e+003;2.375085e+001
3.293873e+003;2.371519e+001
3.295802e+003;2.368319e+001
3.297730e+003;2.365016e+001
3.299659e+003;2.361619e+001
3.301587e+003;2.358272e+001
3.303516e+003;2.355217e+001
3.305444e+003;2.351724e+001
3.307373e+003;2.348565e+001
3.309301e+003;2.345350e+001
3.311230e+003;2.342040e+001
3.313158e+003;2.338773e+001
3.315087e+003;2.335791e+001
3.317015e+003;2.332323e+001
3.318944e+003;2.329242e+001
3.320872e+003;2.326104e+001
3.322801e+003;2.322830e+001
3.324729e+003;2.319598e+001
3.326658e+003;2.316692e+001
3.328586e+003;2.313285e+001
3.330515e+003;2.310196e+001
3.332443e+003;2.307149e+001
3.334372e+003;2.303994e+001
3.336300e+003;2.300760e+001
3.338229e+003;2.297924e+001
3.340157e+003;2.294651e+001
3.342086e+003;2.291618e+001
3.344014e+003;2.288600e+001
3.345943e+003;2.285489e+001
3.347871e+003;2.282309e+001
3.349800e+003;2.279507e+001
3.351728e+003;2.276242e+001
3.353657e+003;2.273218e+001
3.355585e+003;2.270239e+001
3.357514e+003;2.267145e+001
3.359442e+003;2.263953e+001
3.361371e+003;2.261189e+001
3.363299e+003;2.257952e+001
3.365228e+003;2.254912e+001
3.367156e+003;2.251996e+001
3.369085e+003;2.248981e+001
3.371013e+003;2.245771e+001
3.372942e+003;2.242983e+001
3.374870e+003;2.239775e+001
3.376799e+003;2.236688e+001
3.378727e+003;2.233684e+001
3.380656e+003;2.230608e+001
3.382584e+003;2.227311e+001
3.384513e+003;2.224463e+001
3.386441e+003;2.221192e+001
3.388370e+003;2.218000e+001
3.390298e+003;2.214914e+001
3.392227e+003;2.211732e+001
3.394155e+003;2.208334e+001
3.396083e+003;2.205356e+001
3.398012e+003;2.201982e+001
3.399941e+003;2.198657e+001
3.401869e+003;2.195410e+001
3.403798e+003;2.192105e+001
3.405726e+003;2.188469e+001
3.407655e+003;2.185242e+001
3.409583e+003;2.181630e+001
3.411511e+003;2.177946e+001
3.413440e+003;2.174322e+001
3.415369e+003;2.170598e+001
3.417297e+003;2.166406e+001
3.419226e+003;2.162492e+001
3.421154e+003;2.158242e+001
3.423083e+003;2.153920e+001
3.425011e+003;2.149513e+001
3.426939e+003;2.144980e+001
3.428868e+003;2.140000e+001
3.430797e+003;2.135456e+001
3.432725e+003;2.130751e+001
3.434654e+003;2.126159e+001
3.436582e+003;2.121940e+001
3.438510e+003;2.118207e+001
3.440439e+003;2.114456e+001
3.442367e+003;2.111470e+001
3.444296e+003;2.108598e+001
3.446225e+003;2.105735e+001
3.448153e+003;2.103267e+001
3.450082e+003;2.101076e+001
3.452010e+003;2.098364e+001
3.453938e+003;2.095983e+001
3.455867e+003;2.093306e+001
3.457795e+003;2.090472e+001
3.459724e+003;2.087711e+001
3.461653e+003;2.085101e+001
3.463581e+003;2.082088e+001
3.465510e+003;2.079516e+001
3.467438e+003;2.076897e+001
3.469366e+003;2.074284e+001
3.471295e+003;2.071799e+001
3.473223e+003;2.069668e+001
3.475152e+003;2.067239e+001
3.477081e+003;2.065351e+001
3.479009e+003;2.063453e+001
3.480938e+003;2.061514e+001
3.482866e+003;2.059867e+001
3.484794e+003;2.058667e+001
3.486723e+003;2.057003e+001
3.488651e+003;2.055834e+001
3.490580e+003;2.054751e+001
3.492509e+003;2.053530e+001
3.494437e+003;2.052307e+001
3.496365e+003;2.051407e+001
3.498294e+003;2.050156e+001
3.500222e+003;2.049060e+001
3.502151e+003;2.047802e+001
3.504079e+003;2.046624e+001
3.506008e+003;2.045523e+001
3.507937e+003;2.044437e+001
3.509865e+003;2.042913e+001
3.511793e+003;2.041771e+001
3.513722e+003;2.040534e+001
3.515650e+003;2.039090e+001
3.517579e+003;2.037479e+001
3.519507e+003;2.036159e+001
3.521436e+003;2.034297e+001
3.523365e+003;2.032573e+001
3.525293e+003;2.030992e+001
3.527221e+003;2.029251e+001
3.529150e+003;2.027440e+001
3.531078e+003;2.026029e+001
3.533007e+003;2.024110e+001
3.534935e+003;2.022085e+001
3.536864e+003;2.020181e+001
3.538792e+003;2.018295e+001
3.540721e+003;2.016082e+001
3.542649e+003;2.013979e+001
3.544578e+003;2.011319e+001
3.546506e+003;2.009021e+001
3.548435e+003;2.007220e+001
3.550363e+003;2.005022e+001
3.552292e+003;2.002401e+001
3.554220e+003;2.000465e+001
3.556149e+003;1.998099e+001
3.558077e+003;1.995560e+001
3.560006e+003;1.993057e+001
3.561934e+003;1.990555e+001
3.563863e+003;1.987413e+001
3.565791e+003;1.984067e+001
3.567720e+003;1.981336e+001
3.569648e+003;1.979972e+001
3.571577e+003;1.978183e+001
3.573505e+003;1.975839e+001
3.575434e+003;1.973179e+001
3.577362e+003;1.970938e+001
3.579291e+003;1.968483e+001
3.581219e+003;1.966108e+001
3.583148e+003;1.963638e+001
3.585076e+003;1.960515e+001
3.587005e+003;1.956924e+001
3.588933e+003;1.955262e+001
3.590862e+003;1.954022e+001
3.592790e+003;1.951545e+001
3.594719e+003;1.948938e+001
3.596647e+003;1.946861e+001
3.598576e+003;1.944386e+001
3.600504e+003;1.941992e+001
3.602433e+003;1.939733e+001
3.604361e+003;1.937197e+001
3.606290e+003;1.933861e+001
3.608218e+003;1.930293e+001
3.610147e+003;1.927811e+001
3.612075e+003;1.925636e+001
3.614004e+003;1.923332e+001
3.615932e+003;1.920836e+001
3.617861e+003;1.917100e+001
3.619789e+003;1.914475e+001
3.621718e+003;1.913120e+001
3.623646e+003;1.911095e+001
3.625575e+003;1.907505e+001
3.627503e+003;1.901583e+001
3.629432e+003;1.898053e+001
3.631360e+003;1.898504e+001
3.633289e+003;1.896484e+001
3.635217e+003;1.893958e+001
3.637146e+003;1.891146e+001
3.639074e+003;1.888049e+001
3.641003e+003;1.884576e+001
3.642931e+003;1.880875e+001
3.644860e+003;1.875403e+001
3.646788e+003;1.868131e+001
3.648717e+003;1.862747e+001
3.650645e+003;1.863127e+001
3.652574e+003;1.865008e+001
3.654502e+003;1.862949e+001
3.656431e+003;1.859513e+001
3.658359e+003;1.858151e+001
3.660288e+003;1.855748e+001
3.662216e+003;1.852735e+001
3.664145e+003;1.849608e+001
3.666073e+003;1.846362e+001
3.668002e+003;1.841327e+001
3.669930e+003;1.836271e+001
3.671859e+003;1.834797e+001
3.673787e+003;1.831118e+001
3.675716e+003;1.826483e+001
3.677644e+003;1.827042e+001
3.679573e+003;1.825969e+001
3.681501e+003;1.823918e+001
3.683430e+003;1.821228e+001
3.685358e+003;1.817807e+001
3.687287e+003;1.811779e+001
3.689215e+003;1.808855e+001
3.691144e+003;1.808544e+001
3.693072e+003;1.807595e+001
3.695001e+003;1.805566e+001
3.696929e+003;1.803111e+001
3.698858e+003;1.800308e+001
3.700786e+003;1.797054e+001
3.702715e+003;1.794666e+001
3.704643e+003;1.792877e+001
3.706572e+003;1.789957e+001
3.708500e+003;1.786146e+001
3.710429e+003;1.781796e+001
3.712357e+003;1.778979e+001
3.714286e+003;1.778245e+001
3.716214e+003;1.776212e+001
3.718143e+003;1.772866e+001
3.720071e+003;1.769291e+001
3.722000e+003;1.765467e+001
3.723928e+003;1.761733e+001
3.725857e+003;1.757547e+001
3.727785e+003;1.753876e+001
3.729714e+003;1.749017e+001
3.731642e+003;1.742743e+001
3.733571e+003;1.738189e+001
3.735499e+003;1.734358e+001
3.737427e+003;1.734002e+001
3.739356e+003;1.736099e+001
3.741285e+003;1.737080e+001
3.743213e+003;1.734360e+001
3.745142e+003;1.735771e+001
3.747070e+003;1.740123e+001
3.748999e+003;1.738274e+001
3.750927e+003;1.737236e+001
3.752855e+003;1.738478e+001
3.754784e+003;1.740815e+001
3.756713e+003;1.739618e+001
3.758641e+003;1.737843e+001
3.760570e+003;1.736281e+001
3.762498e+003;1.735454e+001
3.764427e+003;1.732778e+001
3.766355e+003;1.730853e+001
3.768283e+003;1.728335e+001
3.770212e+003;1.726211e+001
3.772141e+003;1.725001e+001
3.774069e+003;1.723470e+001
3.775998e+003;1.720949e+001
3.777926e+003;1.718216e+001
3.779854e+003;1.715753e+001
3.781783e+003;1.714193e+001
3.783711e+003;1.711699e+001
3.785640e+003;1.709677e+001
3.787569e+003;1.707442e+001
3.789497e+003;1.705313e+001
3.791426e+003;1.702890e+001
3.793354e+003;1.700462e+001
3.795282e+003;1.697178e+001
3.797211e+003;1.694972e+001
3.799139e+003;1.691251e+001
3.801068e+003;1.686624e+001
3.802997e+003;1.686390e+001
3.804925e+003;1.684909e+001
3.806854e+003;1.681191e+001
3.808782e+003;1.680880e+001
3.810710e+003;1.679529e+001
3.812639e+003;1.676815e+001
3.814567e+003;1.671606e+001
3.816496e+003;1.668697e+001
3.818425e+003;1.668025e+001
3.820353e+003;1.664589e+001
3.822281e+003;1.662954e+001
3.824210e+003;1.662477e+001
3.826138e+003;1.660135e+001
3.828067e+003;1.658108e+001
3.829995e+003;1.655182e+001
3.831924e+003;1.652514e+001
3.833853e+003;1.649931e+001
3.835781e+003;1.645879e+001
3.837709e+003;1.642021e+001
3.839638e+003;1.641872e+001
3.841566e+003;1.640825e+001
3.843495e+003;1.639113e+001
3.845423e+003;1.637387e+001
3.847352e+003;1.635432e+001
3.849281e+003;1.632028e+001
3.851209e+003;1.626044e+001
3.853137e+003;1.619646e+001
3.855066e+003;1.620691e+001
3.856994e+003;1.623057e+001
3.858923e+003;1.621631e+001
3.860851e+003;1.618803e+001
3.862780e+003;1.616020e+001
3.864708e+003;1.613165e+001
3.866637e+003;1.611663e+001
3.868565e+003;1.608054e+001
3.870494e+003;1.605556e+001
3.872422e+003;1.604989e+001
3.874351e+003;1.603211e+001
3.876279e+003;1.601565e+001
3.878208e+003;1.599042e+001
3.880136e+003;1.596174e+001
3.882065e+003;1.594395e+001
3.883993e+003;1.591373e+001
3.885922e+003;1.588818e+001
3.887850e+003;1.588027e+001
3.889779e+003;1.585390e+001
3.891707e+003;1.582926e+001
3.893636e+003;1.581786e+001
3.895564e+003;1.579878e+001
3.897493e+003;1.577060e+001
3.899421e+003;1.573766e+001
3.901350e+003;1.571277e+001
3.903278e+003;1.569066e+001
3.905207e+003;1.567834e+001
3.907135e+003;1.566754e+001
3.909064e+003;1.565120e+001
3.910992e+003;1.562816e+001
3.912921e+003;1.560636e+001
3.914849e+003;1.558181e+001
3.916778e+003;1.555523e+001
3.918706e+003;1.553372e+001
3.920635e+003;1.551762e+001
3.922563e+003;1.549637e+001
3.924492e+003;1.547338e+001
3.926420e+003;1.545461e+001
3.928349e+003;1.543420e+001
3.930277e+003;1.540906e+001
3.932206e+003;1.538791e+001
3.934134e+003;1.536933e+001
3.936063e+003;1.535061e+001
3.937991e+003;1.533000e+001
3.939920e+003;1.530819e+001
3.941848e+003;1.528294e+001
3.943777e+003;1.526440e+001
3.945705e+003;1.524389e+001
3.947634e+003;1.522110e+001
3.949562e+003;1.520109e+001
3.951491e+003;1.518261e+001
3.953419e+003;1.516093e+001
3.955348e+003;1.514198e+001
3.957276e+003;1.512104e+001
3.959205e+003;1.509964e+001
3.961133e+003;1.507864e+001
3.963062e+003;1.505946e+001
3.964990e+003;1.503783e+001
3.966919e+003;1.501851e+001
3.968847e+003;1.499746e+001
3.970776e+003;1.497673e+001
3.972704e+003;1.495650e+001
3.974633e+003;1.493692e+001
3.976561e+003;1.491501e+001
3.978490e+003;1.489643e+001
3.980418e+003;1.487608e+001
3.982347e+003;1.485526e+001
3.984275e+003;1.483540e+001
3.986204e+003;1.481703e+001
3.988132e+003;1.479502e+001
3.990061e+003;1.477581e+001
3.991989e+003;1.475620e+001
3.993918e+003;1.473592e+001
3.995846e+003;1.471601e+001
3.997775e+003;1.469786e+001
3.999703e+003;1.467617e+001
