399.1989,1.146698
401.1274,1.219737
403.0559,1.294972
404.9844,1.373446
406.9129,1.452224
408.8414,1.531137
410.7699,1.612023
412.6984,1.69425
414.6269,1.775469
416.5554,1.852723
418.4839,1.926825
420.4124,2.005895
422.3409,2.083113
424.2694,2.155751
426.1979,2.226744
428.1264,2.294652
430.0549,2.359258
431.9834,2.423255
433.9119,2.485487
435.8404,2.543593
437.7689,2.601262
439.6974,2.657592
441.6259,2.70832
443.5544,2.755378
445.4829,2.799767
447.4114,2.839787
449.3399,2.876544
451.2684,2.908887
453.1969,2.937256
455.1254,2.965361
457.0539,2.991212
458.9824,3.014172
460.9109,3.037611
462.8394,3.060477
464.7679,3.082609
466.6964,3.106537
468.6248,3.135236
470.5533,3.166242
472.4818,3.200179
474.4103,3.238529
476.3388,3.279032
478.2673,3.322032
480.1958,3.367166
482.1243,3.411478
484.0528,3.455427
485.9813,3.502406
487.9098,3.553222
489.8383,3.607155
491.7668,3.661969
493.6953,3.715948
495.6238,3.766618
497.5523,3.814106
499.4808,3.857283
501.4093,3.896046
503.3378,3.929934
505.2663,3.956
507.1948,3.973554
509.1233,3.983648
511.0518,3.985545
512.9803,3.988625
514.9088,4.019923
516.8373,4.082113
518.7657,4.142128
520.6943,4.185858
522.6227,4.222943
524.5513,4.255617
526.4797,4.290034
528.4083,4.326449
530.3367,4.361136
532.2653,4.394072
534.1937,4.425389
536.1223,4.453897
538.0507,4.481863
539.9792,4.507501
541.9077,4.528636
543.8362,4.549564
545.7647,4.574159
547.6932,4.597867
549.6217,4.620478
551.5502,4.643032
553.4787,4.665117
555.4072,4.687182
557.3357,4.710408
559.2642,4.733938
561.1927,4.759133
563.1212,4.78566
565.0497,4.813241
566.9782,4.847467
568.9067,4.906782
570.8352,4.98198
572.7637,5.048811
574.6922,5.102321
576.6207,5.147438
578.5492,5.184444
580.4777,5.213141
582.4062,5.232675
584.3347,5.24242
586.2632,5.242033
588.1917,5.229909
590.1202,5.202237
592.0486,5.155998
593.9772,5.090089
595.9056,5.005488
597.8342,4.894293
599.7626,4.738885
601.6912,4.554387
603.6196,4.414096
605.5482,4.312108
607.4766,4.21016
609.4052,4.131622
611.3336,4.150309
613.2621,4.249311
615.1906,4.32206
617.1191,4.358812
619.0476,4.392562
620.9761,4.452602
622.9046,4.63979
624.8331,5.014727
626.7616,5.492043
628.6901,5.965878
630.6186,6.307909
632.5471,6.480244
634.4756,6.557101
636.4041,6.604802
638.3326,6.645504
640.2611,6.685664
642.1896,6.72624
644.1181,6.768076
646.0466,6.803228
647.9751,6.837538
649.9036,6.876211
651.8321,6.911344
653.7606,6.941619
655.6891,6.969451
657.6176,6.996956
659.5461,7.024151
661.4745,7.051645
663.4031,7.080485
665.3315,7.105469
667.2601,7.123509
669.1885,7.151945
671.1171,7.184744
673.0455,7.211802
674.9741,7.239595
676.9025,7.267263
678.8311,7.292595
680.7595,7.31591
682.688,7.338899
684.6165,7.360079
686.545,7.379832
688.4735,7.400792
690.402,7.427001
692.3305,7.456614
694.259,7.490445
696.1875,7.527951
698.116,7.564818
700.0445,7.591832
701.973,7.605979
703.9015,7.608383
705.83,7.602449
707.7585,7.587246
709.687,7.558731
711.6155,7.51084
713.544,7.442166
715.4725,7.366369
717.401,7.30488
719.3295,7.257913
721.258,7.215132
723.1865,7.174109
725.115,7.135696
727.0435,7.098638
728.972,7.062965
730.9005,7.027779
732.829,6.993734
734.7574,6.962555
736.686,6.936126
738.6144,6.922951
740.543,6.942584
742.4714,6.992282
744.4,7.045045
746.3284,7.086478
748.257,7.118684
750.1854,7.145172
752.114,7.16823
754.0424,7.188475
755.9709,7.207238
757.8994,7.224732
759.8279,7.241077
761.7564,7.254899
763.6849,7.266156
765.6134,7.275712
767.5419,7.283395
769.4704,7.289611
771.3989,7.2945
773.3274,7.297905
775.2559,7.301126
777.1844,7.303844
779.1129,7.305556
781.0414,7.304225
782.9699,7.300679
784.8984,7.29523
786.8269,7.287874
788.7554,7.278759
790.6839,7.271242
792.6124,7.268475
794.5409,7.274574
796.4694,7.295437
798.3979,7.329124
800.3264,7.344126
802.2549,7.327481
804.1833,7.299256
806.1119,7.271066
808.0403,7.248902
809.9689,7.23338
811.8973,7.220908
813.8259,7.207333
815.7543,7.195308
817.6829,7.191381
819.6113,7.198128
821.5399,7.214311
823.4683,7.237632
825.3969,7.267804
827.3253,7.304553
829.2538,7.345368
831.1823,7.383246
833.1108,7.412507
835.0393,7.430319
836.9678,7.438444
838.8963,7.439755
840.8248,7.433457
842.7533,7.420105
844.6818,7.405142
846.6103,7.392641
848.5388,7.381518
850.4673,7.368633
852.3958,7.3524
854.3243,7.333651
856.2528,7.312017
858.1813,7.285464
860.1098,7.253755
862.0383,7.221359
863.9668,7.19605
865.8953,7.181271
867.8238,7.17351
869.7523,7.168252
871.6808,7.164741
873.6093,7.162087
875.5378,7.159043
877.4662,7.155905
879.3948,7.154287
881.3232,7.153538
883.2518,7.154488
885.1802,7.157425
887.1088,7.159978
889.0372,7.163815
890.9658,7.169642
892.8942,7.176197
894.8227,7.184605
896.7512,7.195378
898.6797,7.207783
900.6082,7.223569
902.5367,7.24209
904.4652,7.261431
906.3937,7.283261
908.3222,7.308142
910.2507,7.335932
912.1792,7.368673
914.1077,7.404274
916.0362,7.437263
917.9647,7.46739
919.8932,7.495317
921.8217,7.521634
923.7502,7.548463
925.6786,7.575986
927.6072,7.602451
929.5356,7.628341
931.4642,7.652741
933.3926,7.674776
935.3212,7.695417
937.2496,7.713685
939.1782,7.72878
941.1066,7.741086
943.0352,7.75031
944.9636,7.755694
946.8922,7.758317
948.8206,7.759456
950.7491,7.760478
952.6776,7.761229
954.6061,7.760115
956.5346,7.757653
958.4631,7.755094
960.3916,7.752954
962.3201,7.752898
964.2486,7.758354
966.1771,7.768681
968.1056,7.781398
970.0341,7.795106
971.9626,7.807096
973.8911,7.818203
975.8196,7.8322
977.7481,7.846783
979.6766,7.858758
981.6051,7.868664
983.5336,7.876672
985.4621,7.882651
987.3906,7.887921
989.3191,7.892012
991.2476,7.895259
993.1761,7.898937
995.1046,7.902502
997.0331,7.90564
998.9615,7.907342
1000.89,7.905533
1002.819,7.899598
1004.747,7.889231
1006.676,7.873166
1008.604,7.852678
1010.533,7.82971
1012.461,7.803823
1014.39,7.77767
1016.318,7.753975
1018.247,7.731556
1020.175,7.711184
1022.104,7.693848
1024.032,7.677313
1025.961,7.661237
1027.889,7.645319
1029.818,7.628029
1031.746,7.609475
1033.675,7.589365
1035.603,7.566642
1037.531,7.542038
1039.46,7.515203
1041.389,7.485995
1043.317,7.455385
1045.245,7.423939
1047.174,7.391335
1049.103,7.358355
1051.031,7.325718
1052.959,7.291838
1054.888,7.257716
1056.817,7.223216
1058.745,7.187442
1060.673,7.151606
1062.602,7.115815
1064.531,7.079117
1066.459,7.041319
1068.387,7.002125
1070.316,6.961144
1072.245,6.918199
1074.173,6.873884
1076.101,6.832016
1078.03,6.791649
1079.958,6.750437
1081.887,6.718036
1083.815,6.688727
1085.744,6.649198
1087.672,6.598366
1089.601,6.539544
1091.529,6.47581
1093.458,6.408851
1095.386,6.342399
1097.315,6.280099
1099.243,6.22458
1101.172,6.179506
1103.1,6.14732
1105.029,6.128403
1106.957,6.123648
1108.886,6.132608
1110.814,6.154175
1112.743,6.188414
1114.671,6.234878
1116.6,6.292365
1118.528,6.358908
1120.457,6.431601
1122.385,6.507852
1124.314,6.585764
1126.242,6.661487
1128.171,6.731205
1130.099,6.792986
1132.028,6.844857
1133.956,6.886593
1135.885,6.919883
1137.813,6.944486
1139.742,6.959991
1141.67,6.971093
1143.599,6.98561
1145.527,7.000204
1147.456,7.009473
1149.384,7.015381
1151.313,7.031741
1153.241,7.062018
1155.17,7.089323
1157.098,7.10875
1159.027,7.124537
1160.955,7.137566
1162.884,7.148125
1164.812,7.158326
1166.741,7.169646
1168.669,7.180893
1170.598,7.190454
1172.526,7.196345
1174.455,7.199456
1176.383,7.194487
1178.312,7.168937
1180.24,7.145492
1182.169,7.182249
1184.097,7.242238
1186.026,7.272634
1187.954,7.288999
1189.883,7.300437
1191.811,7.309869
1193.74,7.317839
1195.668,7.32499
1197.597,7.33136
1199.525,7.338145
1201.454,7.34403
1203.382,7.349258
1205.311,7.353168
1207.239,7.3558
1209.168,7.356615
1211.096,7.357605
1213.025,7.357267
1214.953,7.356523
1216.882,7.355566
1218.81,7.35415
1220.739,7.351239
1222.667,7.348315
1224.596,7.345097
1226.524,7.342299
1228.453,7.339844
1230.381,7.337333
1232.31,7.334493
1234.238,7.332561
1236.167,7.330027
1238.095,7.326022
1240.024,7.32135
1241.952,7.31605
1243.881,7.309175
1245.809,7.301989
1247.738,7.293417
1249.666,7.283288
1251.595,7.27134
1253.523,7.256548
1255.452,7.236191
1257.38,7.212057
1259.309,7.187106
1261.237,7.166516
1263.166,7.155043
1265.094,7.152916
1267.023,7.157478
1268.951,7.164483
1270.88,7.166685
1272.808,7.16426
1274.737,7.15796
1276.665,7.149258
1278.594,7.138017
1280.522,7.125118
1282.451,7.111188
1284.379,7.0972
1286.308,7.08244
1288.236,7.067549
1290.165,7.05337
1292.093,7.039592
1294.022,7.025335
1295.95,7.011461
1297.879,6.998143
1299.807,6.985019
1301.736,6.972026
1303.664,6.960014
1305.593,6.948282
1307.521,6.937427
1309.45,6.926669
1311.378,6.915619
1313.307,6.904762
1315.235,6.89439
1317.164,6.883062
1319.092,6.872293
1321.021,6.861787
1322.949,6.850908
1324.878,6.839602
1326.806,6.828414
1328.735,6.817183
1330.663,6.806013
1332.592,6.794047
1334.52,6.780787
1336.449,6.766732
1338.377,6.752799
1340.306,6.738654
1342.234,6.725006
1344.163,6.709414
1346.091,6.692454
1348.02,6.674918
1349.948,6.657777
1351.877,6.640286
1353.805,6.623337
1355.734,6.606381
1357.662,6.589683
1359.591,6.571611
1361.519,6.552758
1363.448,6.535388
1365.376,6.51984
1367.305,6.502645
1369.233,6.484775
1371.161,6.466744
1373.09,6.447828
1375.019,6.429694
1376.947,6.413506
1378.875,6.396447
1380.804,6.378467
1382.733,6.357916
1384.661,6.340798
1386.589,6.32709
1388.518,6.317301
1390.447,6.307017
1392.375,6.290761
1394.303,6.272004
1396.232,6.258014
1398.161,6.242816
1400.089,6.228538
1402.017,6.216116
1403.946,6.200655
1405.875,6.185743
1407.803,6.172244
1409.731,6.156921
1411.66,6.141185
1413.589,6.125516
1415.517,6.108268
1417.445,6.085861
1419.374,6.065129
1421.302,6.054395
1423.231,6.039432
1425.159,6.021745
1427.088,6.003288
1429.016,5.981853
1430.945,5.962254
1432.873,5.942252
1434.802,5.916349
1436.73,5.890143
1438.659,5.875926
1440.587,5.859315
1442.516,5.840041
1444.444,5.820665
1446.373,5.800717
1448.301,5.782461
1450.23,5.768403
1452.158,5.753053
1454.087,5.73476
1456.015,5.708475
1457.944,5.698482
1459.872,5.701028
1461.801,5.695682
1463.729,5.683206
1465.658,5.675219
1467.586,5.671309
1469.515,5.662537
1471.443,5.648705
1473.372,5.640172
1475.3,5.63791
1477.229,5.633522
1479.157,5.626951
1481.086,5.617055
1483.014,5.607645
1484.943,5.596237
1486.871,5.582307
1488.8,5.568403
1490.728,5.556909
1492.657,5.548377
1494.585,5.532764
1496.514,5.51478
1498.442,5.504959
1500.371,5.496087
1502.299,5.483256
1504.228,5.458411
1506.156,5.430732
1508.085,5.423248
1510.013,5.420086
1511.942,5.407608
1513.87,5.393145
1515.799,5.375187
1517.727,5.358561
1519.656,5.338279
1521.584,5.31906
1523.513,5.311679
1525.441,5.299032
1527.37,5.286318
1529.298,5.273711
1531.227,5.25717
1533.155,5.238069
1535.084,5.226279
1537.012,5.207233
1538.941,5.177552
1540.869,5.16295
1542.798,5.157845
1544.726,5.148808
1546.655,5.138965
1548.583,5.124639
1550.512,5.109595
1552.44,5.093186
1554.369,5.074313
1556.297,5.054375
1558.226,5.025636
1560.154,5.014311
1562.083,5.017449
1564.011,5.007744
1565.94,4.992889
1567.868,4.975968
1569.797,4.958959
1571.725,4.947907
1573.654,4.931242
1575.582,4.90682
1577.511,4.89637
1579.439,4.890461
1581.368,4.876588
1583.296,4.861547
1585.225,4.846984
1587.153,4.832555
1589.082,4.816982
1591.01,4.802522
1592.939,4.787725
1594.867,4.772179
1596.796,4.757501
1598.724,4.742703
1600.653,4.726642
1602.581,4.711417
1604.51,4.695923
1606.438,4.678326
1608.367,4.660287
1610.295,4.643848
1612.224,4.627758
1614.152,4.607801
1616.081,4.579529
1618.009,4.55985
1619.938,4.548885
1621.866,4.53847
1623.795,4.531929
1625.723,4.526771
1627.652,4.516682
1629.58,4.505382
1631.509,4.494085
1633.437,4.475797
1635.366,4.455551
1637.294,4.448069
1639.223,4.441257
1641.151,4.429208
1643.08,4.415355
1645.008,4.395223
1646.937,4.379627
1648.865,4.372125
1650.794,4.351306
1652.722,4.323063
1654.651,4.321413
1656.579,4.322236
1658.508,4.31135
1660.436,4.297319
1662.365,4.281732
1664.293,4.270116
1666.222,4.258727
1668.15,4.241585
1670.079,4.227524
1672.007,4.218367
1673.936,4.203639
1675.864,4.189801
1677.793,4.18237
1679.721,4.169662
1681.65,4.153379
1683.578,4.129697
1685.507,4.119047
1687.435,4.117315
1689.364,4.107835
1691.292,4.096155
1693.221,4.08057
1695.149,4.058385
1697.078,4.046968
1699.006,4.032562
1700.935,4.019221
1702.863,4.015878
1704.792,4.003322
1706.72,3.991351
1708.649,3.979568
1710.577,3.967442
1712.505,3.952578
1714.434,3.935146
1716.363,3.915116
1718.291,3.902401
1720.219,3.89618
1722.148,3.885447
1724.077,3.872107
1726.005,3.858219
1727.933,3.843606
1729.862,3.828959
1731.791,3.810478
1733.719,3.791519
1735.647,3.786641
1737.576,3.782732
1739.505,3.773329
1741.433,3.768108
1743.361,3.76249
1745.29,3.756021
1747.219,3.747346
1749.147,3.73639
1751.075,3.726521
1753.004,3.720892
1754.932,3.71186
1756.861,3.700784
1758.789,3.691443
1760.718,3.679783
1762.646,3.669879
1764.575,3.661629
1766.503,3.649337
1768.432,3.637318
1770.36,3.625022
1772.289,3.611097
1774.217,3.604134
1776.146,3.597001
1778.074,3.586805
1780.003,3.575632
1781.931,3.564913
1783.86,3.553885
1785.788,3.543622
1787.717,3.533929
1789.645,3.521701
1791.574,3.508459
1793.502,3.498707
1795.431,3.490842
1797.359,3.480709
1799.288,3.469678
1801.216,3.45891
1803.145,3.449736
1805.073,3.439694
1807.002,3.429006
1808.93,3.418414
1810.859,3.407739
1812.787,3.397493
1814.716,3.387983
1816.644,3.377328
1818.573,3.366625
1820.501,3.356658
1822.43,3.346203
1824.358,3.334117
1826.287,3.323921
1828.215,3.312936
1830.144,3.301664
1832.072,3.292956
1834.001,3.283009
1835.929,3.27193
1837.858,3.261856
1839.786,3.251268
1841.715,3.239212
1843.643,3.226227
1845.572,3.217
1847.5,3.208668
1849.429,3.198789
1851.357,3.188281
1853.286,3.177689
1855.214,3.167397
1857.143,3.156388
1859.071,3.145839
1861,3.135561
1862.928,3.124867
1864.857,3.114224
1866.785,3.103319
1868.714,3.092178
1870.642,3.083034
1872.571,3.074214
1874.499,3.063994
1876.428,3.053818
1878.356,3.043873
1880.285,3.033818
1882.213,3.024043
1884.142,3.014186
1886.07,3.003525
1887.999,2.993123
1889.927,2.98358
1891.856,2.97398
1893.784,2.964071
1895.713,2.954572
1897.641,2.945009
1899.57,2.935532
1901.498,2.925823
1903.427,2.915715
1905.355,2.90601
1907.284,2.896145
1909.212,2.885859
1911.141,2.876398
1913.069,2.867019
1914.998,2.856613
1916.926,2.845885
1918.855,2.836255
1920.783,2.826752
1922.712,2.816813
1924.64,2.807322
1926.569,2.797348
1928.497,2.787411
1930.426,2.777492
1932.354,2.767106
1934.283,2.757249
1936.211,2.747213
1938.14,2.736429
1940.068,2.726038
1941.997,2.715526
1943.925,2.705409
1945.854,2.695855
1947.782,2.685932
1949.711,2.675667
1951.639,2.66593
1953.568,2.656119
1955.496,2.645536
1957.425,2.635117
1959.353,2.625307
1961.282,2.615608
1963.21,2.605959
1965.139,2.59623
1967.067,2.586113
1968.996,2.576914
1970.924,2.56735
1972.853,2.557672
1974.781,2.548918
1976.71,2.539774
1978.638,2.530255
1980.567,2.521267
1982.495,2.512148
1984.424,2.503311
1986.352,2.495087
1988.281,2.486564
1990.209,2.477611
1992.138,2.469456
1994.066,2.46181
1995.995,2.454083
1997.923,2.446714
1999.852,2.439189
2001.78,2.431906
2003.709,2.424942
2005.637,2.417949
2007.566,2.411202
2009.494,2.40491
2011.423,2.398318
2013.351,2.391992
2015.28,2.385915
2017.208,2.37933
2019.137,2.373408
2021.065,2.368098
2022.994,2.362069
2024.922,2.356115
2026.851,2.350408
2028.779,2.344143
2030.708,2.338386
2032.636,2.333256
2034.565,2.327689
2036.493,2.321752
2038.422,2.316087
2040.35,2.310224
2042.279,2.304311
2044.207,2.298607
2046.135,2.292614
2048.064,2.286997
2049.992,2.281327
2051.921,2.275392
2053.85,2.269809
2055.778,2.263906
2057.707,2.257386
2059.635,2.251525
2061.563,2.245739
2063.492,2.239416
2065.42,2.233377
2067.349,2.227574
2069.278,2.221285
2071.206,2.215432
2073.135,2.209215
2075.063,2.20267
2076.991,2.196631
2078.92,2.19083
2080.848,2.184456
2082.777,2.178432
2084.706,2.172532
2086.634,2.166384
2088.563,2.160744
2090.491,2.154455
2092.419,2.147607
2094.348,2.141444
2096.276,2.13581
2098.205,2.12952
2100.134,2.1234
2102.062,2.117106
2103.99,2.110918
2105.919,2.105149
2107.847,2.098832
2109.776,2.092508
2111.704,2.086708
2113.633,2.081236
2115.562,2.074919
2117.49,2.069071
2119.418,2.063075
2121.347,2.057025
2123.275,2.050835
2125.204,2.044658
2127.132,2.038517
2129.061,2.03336
2130.99,2.027586
2132.918,2.021341
2134.846,2.015668
2136.775,2.009884
2138.703,2.003834
2140.632,1.998275
2142.56,1.992428
2144.489,1.986426
2146.417,1.980583
2148.346,1.974806
2150.274,1.968979
2152.203,1.963286
2154.131,1.957315
2156.06,1.951348
2157.988,1.94559
2159.917,1.9397
2161.845,1.933806
2163.774,1.928252
2165.702,1.922613
2167.631,1.916941
2169.559,1.91132
2171.488,1.905858
2173.416,1.900096
2175.345,1.894565
2177.273,1.88884
2179.202,1.883056
2181.13,1.877545
2183.059,1.872088
2184.987,1.86661
2186.916,1.861081
2188.844,1.855528
2190.773,1.850462
2192.701,1.845421
2194.63,1.839724
2196.558,1.834371
2198.487,1.829442
2200.415,1.823755
2202.344,1.818481
2204.272,1.813058
2206.201,1.807578
2208.129,1.80231
2210.058,1.796891
2211.986,1.791468
2213.915,1.786365
2215.843,1.781326
2217.772,1.775769
2219.7,1.770083
2221.629,1.764945
2223.557,1.759845
2225.486,1.754613
2227.414,1.749403
2229.343,1.743942
2231.271,1.738779
2233.2,1.733763
2235.128,1.728311
2237.057,1.723034
2238.985,1.717784
2240.914,1.712428
2242.842,1.707202
2244.771,1.702127
2246.699,1.696933
2248.628,1.691858
2250.556,1.686496
2252.485,1.680869
2254.413,1.675814
2256.342,1.670788
2258.27,1.665562
2260.199,1.660659
2262.127,1.655553
2264.056,1.650122
2265.984,1.645279
2267.913,1.640513
2269.841,1.635178
2271.77,1.630299
2273.698,1.625529
2275.627,1.620569
2277.555,1.615756
2279.484,1.610823
2281.412,1.605533
2283.341,1.600896
2285.269,1.596283
2287.198,1.590974
2289.126,1.585904
2291.055,1.580904
2292.983,1.576104
2294.912,1.57172
2296.84,1.566877
2298.769,1.561704
2300.697,1.55701
2302.626,1.552247
2304.554,1.547263
2306.483,1.542206
2308.411,1.537294
2310.34,1.532693
2312.268,1.52802
2314.197,1.522714
2316.125,1.518015
2318.054,1.513692
2319.982,1.508704
2321.911,1.503852
2323.839,1.499091
2325.768,1.494206
2327.696,1.489355
2329.625,1.484799
2331.553,1.480211
2333.482,1.475856
2335.41,1.471753
2337.339,1.467594
2339.267,1.463363
2341.196,1.459441
2343.124,1.455774
2345.053,1.452692
2346.981,1.44992
2348.91,1.445911
2350.838,1.440861
2352.767,1.435629
2354.695,1.430332
2356.624,1.42537
2358.552,1.420865
2360.481,1.41659
2362.409,1.412495
2364.338,1.408764
2366.266,1.405049
2368.195,1.401875
2370.123,1.39927
2372.052,1.396519
2373.98,1.393762
2375.908,1.390912
2377.837,1.387816
2379.766,1.384954
2381.694,1.381798
2383.623,1.37846
2385.551,1.375252
2387.479,1.372195
2389.408,1.368858
2391.336,1.365644
2393.265,1.362379
2395.194,1.358725
2397.122,1.355216
2399.051,1.351668
2400.979,1.347775
2402.907,1.344215
2404.836,1.340329
2406.764,1.336378
2408.693,1.33263
2410.622,1.328954
2412.55,1.325251
2414.479,1.321691
2416.407,1.318267
2418.335,1.31475
2420.264,1.311149
2422.192,1.307453
2424.121,1.303588
2426.05,1.299906
2427.978,1.296579
2429.906,1.292921
2431.835,1.289153
2433.763,1.285701
2435.692,1.282035
2437.62,1.278714
2439.549,1.275136
2441.478,1.271301
2443.406,1.267808
2445.334,1.264466
2447.263,1.260826
2449.191,1.257248
2451.12,1.253632
2453.048,1.250134
2454.977,1.246777
2456.906,1.243436
2458.834,1.240036
2460.762,1.236633
2462.691,1.232929
2464.619,1.229766
2466.548,1.226583
2468.476,1.222833
2470.405,1.219235
2472.333,1.216246
2474.262,1.212891
2476.19,1.209342
2478.119,1.206309
2480.047,1.202916
2481.976,1.199423
2483.904,1.196624
2485.833,1.19319
2487.761,1.189408
2489.69,1.186285
2491.618,1.183314
2493.547,1.180114
2495.475,1.176768
2497.404,1.173518
2499.332,1.170456
2501.261,1.167287
2503.189,1.164001
2505.118,1.160825
2507.046,1.157697
2508.975,1.154509
2510.903,1.151465
2512.832,1.148193
2514.76,1.145218
2516.689,1.142506
2518.617,1.139483
2520.546,1.136186
2522.474,1.13298
2524.403,1.130301
2526.331,1.127396
2528.26,1.124441
2530.188,1.121451
2532.117,1.118384
2534.045,1.115402
2535.974,1.112189
2537.902,1.108985
2539.831,1.106031
2541.759,1.103236
2543.688,1.100189
2545.616,1.097295
2547.545,1.094362
2549.473,1.091344
2551.402,1.088566
2553.33,1.085701
2555.259,1.082545
2557.187,1.080068
2559.116,1.077373
2561.044,1.07421
2562.973,1.071388
2564.901,1.068637
2566.83,1.06572
2568.758,1.063191
2570.687,1.060283
2572.615,1.05714
2574.544,1.054325
2576.472,1.051573
2578.401,1.049057
2580.329,1.046539
2582.258,1.043611
2584.186,1.040746
2586.115,1.038225
2588.043,1.035286
2589.972,1.032363
2591.9,1.03001
2593.829,1.027254
2595.757,1.024238
2597.686,1.021537
2599.614,1.018958
2601.543,1.016402
2603.471,1.014003
2605.4,1.011011
2607.328,1.008223
2609.257,1.005542
2611.185,1.00278
2613.114,1.000277
2615.042,0.9979405
2616.971,0.995101
2618.899,0.9925559
2620.828,0.9899681
2622.756,0.9871697
2624.685,0.9844694
2626.613,0.9822291
2628.542,0.9796918
2630.47,0.9771412
2632.399,0.9745537
2634.327,0.9716132
2636.256,0.9689867
2638.184,0.9668617
2640.113,0.9643769
2642.041,0.9618138
2643.97,0.9592401
2645.898,0.9565334
2647.827,0.9541218
2649.755,0.9518269
2651.684,0.9489956
2653.612,0.946481
2655.541,0.9442733
2657.469,0.941555
2659.398,0.9391047
2661.326,0.9370782
2663.255,0.9345677
2665.183,0.9320433
2667.112,0.9293655
2669.04,0.9267632
2670.969,0.9245034
2672.897,0.9220677
2674.826,0.9198061
2676.754,0.9176645
2678.683,0.9151164
2680.611,0.9125492
2682.54,0.9104998
2684.468,0.9081087
2686.397,0.9053689
2688.325,0.9032747
2690.254,0.9011671
2692.182,0.8985714
2694.111,0.8960169
2696.039,0.8937237
2697.968,0.891234
2699.896,0.8888147
2701.825,0.8863984
2703.753,0.8840133
2705.682,0.8819643
2707.61,0.8796468
2709.539,0.8770398
2711.467,0.8752523
2713.396,0.8734665
2715.324,0.8711712
2717.253,0.8688111
2719.181,0.8662467
2721.11,0.8637629
2723.038,0.8618922
2724.967,0.8597391
2726.895,0.8572919
2728.823,0.8552529
2730.752,0.8531564
2732.681,0.8509446
2734.609,0.8490761
2736.538,0.8469067
2738.466,0.8445354
2740.395,0.8426518
2742.323,0.8405411
2744.251,0.8382401
2746.18,0.8362399
2748.109,0.8342745
2750.037,0.8322223
2751.966,0.8300582
2753.894,0.8279428
2755.823,0.8257455
2757.751,0.8238261
2759.679,0.8218199
2761.608,0.8195056
2763.537,0.8176734
2765.465,0.8161239
2767.394,0.8138584
2769.322,0.8115397
2771.25,0.8094642
2773.179,0.8075573
2775.107,0.8056248
2777.036,0.8035925
2778.965,0.8015866
2780.893,0.7996704
2782.822,0.7974187
2784.75,0.7954269
2786.678,0.7935089
2788.607,0.7915538
2790.535,0.7897295
2792.464,0.7879762
2794.393,0.785997
2796.321,0.7841257
2798.25,0.7823363
2800.178,0.7800917
2802.106,0.7778423
2804.035,0.7759669
2805.963,0.7740377
2807.892,0.772186
2809.821,0.7702191
2811.749,0.7681758
2813.677,0.7663202
2815.606,0.7644664
2817.534,0.7625837
2819.463,0.7607273
2821.391,0.7586042
2823.32,0.7566597
2825.249,0.7549089
2827.177,0.7529671
2829.105,0.750908
2831.034,0.7487829
2832.962,0.7467851
2834.891,0.7449882
2836.819,0.7429896
2838.748,0.7409618
2840.677,0.7386619
2842.605,0.7365866
2844.533,0.7346369
2846.462,0.7325337
2848.39,0.7303994
2850.319,0.7281572
2852.247,0.7257306
2854.176,0.7234644
2856.104,0.7214139
2858.033,0.7198361
2859.961,0.7181354
2861.89,0.7161918
2863.818,0.7145657
2865.747,0.7129119
2867.675,0.711087
2869.604,0.7092405
2871.532,0.7073299
2873.461,0.7057359
2875.389,0.7040176
2877.318,0.7024591
2879.246,0.7006254
2881.175,0.6989179
2883.103,0.6972195
2885.032,0.6955547
2886.96,0.6939047
2888.889,0.6921802
2890.817,0.6904371
2892.746,0.6886846
2894.674,0.6869811
2896.603,0.6851748
2898.531,0.6831359
2900.46,0.6811133
2902.388,0.679275
2904.317,0.677439
2906.245,0.6754509
2908.174,0.6737927
2910.102,0.6719998
2912.031,0.66996
2913.959,0.6678267
2915.888,0.6655409
2917.816,0.6634464
2919.745,0.6616779
2921.673,0.6597507
2923.602,0.6576171
2925.53,0.6557478
2927.459,0.6544337
2929.387,0.6529152
2931.316,0.6514788
2933.244,0.6501097
2935.173,0.6486875
2937.101,0.6473858
2939.03,0.6461257
2940.958,0.6448688
2942.887,0.6437048
2944.815,0.6422838
2946.744,0.6406138
2948.672,0.6389251
2950.601,0.6372021
2952.529,0.6356595
2954.458,0.6341767
2956.386,0.632167
2958.315,0.6302391
2960.243,0.6284938
2962.172,0.6266761
2964.1,0.6250225
2966.029,0.6239312
2967.957,0.6231887
2969.886,0.6223677
2971.814,0.6218129
2973.743,0.6211448
2975.671,0.6200041
2977.6,0.6191346
2979.528,0.6183404
2981.457,0.617048
2983.385,0.615598
2985.314,0.6143769
2987.242,0.6129895
2989.171,0.611693
2991.099,0.6105697
2993.028,0.609023
2994.956,0.6075794
2996.885,0.6064469
2998.813,0.6053393
3000.742,0.6041227
3002.67,0.6024582
3004.599,0.6008204
3006.527,0.5995813
3008.456,0.5984704
3010.384,0.5971991
3012.313,0.5959234
3014.241,0.5944921
3016.17,0.5930229
3018.098,0.5915347
3020.027,0.5902972
3021.955,0.5888565
3023.884,0.5875924
3025.812,0.5863712
3027.741,0.5848662
3029.669,0.583425
3031.598,0.5820899
3033.526,0.5806048
3035.455,0.5791889
3037.383,0.5780781
3039.312,0.5767783
3041.24,0.5753231
3043.169,0.5740469
3045.097,0.5725721
3047.026,0.5712412
3048.954,0.5700607
3050.883,0.5685892
3052.811,0.5672846
3054.74,0.5659257
3056.668,0.5645089
3058.597,0.5630662
3060.525,0.5615082
3062.454,0.5601482
3064.382,0.5590203
3066.311,0.55798
3068.239,0.5564812
3070.167,0.5552614
3072.096,0.5539715
3074.025,0.5524564
3075.953,0.5510294
3077.882,0.5497358
3079.81,0.5483832
3081.739,0.547077
3083.667,0.545728
3085.595,0.5442383
3087.524,0.5430255
3089.453,0.5419989
3091.381,0.5407783
3093.31,0.5394321
3095.238,0.5380839
3097.167,0.5365452
3099.095,0.5350202
3101.023,0.534018
3102.952,0.5327874
3104.881,0.5313403
3106.809,0.5300717
3108.738,0.5289122
3110.666,0.5276442
3112.594,0.5264449
3114.523,0.5251636
3116.451,0.5237992
3118.38,0.5226091
3120.309,0.5214708
3122.237,0.5201857
3124.166,0.5190098
3126.094,0.5175827
3128.022,0.516061
3129.951,0.5149203
3131.879,0.5137659
3133.808,0.5125542
3135.737,0.5116644
3137.665,0.5103034
3139.594,0.5087972
3141.522,0.5074133
3143.45,0.5062692
3145.379,0.5052376
3147.307,0.5041403
3149.236,0.5030293
3151.165,0.5018665
3153.093,0.5006234
3155.021,0.4993627
3156.95,0.4981996
3158.878,0.4970677
3160.807,0.4957019
3162.735,0.4944174
3164.664,0.4931736
3166.593,0.4919336
3168.521,0.4906488
3170.449,0.4896334
3172.378,0.4885568
3174.306,0.4874619
3176.235,0.4863754
3178.163,0.4850436
3180.092,0.4836845
3182.021,0.4826483
3183.949,0.4817834
3185.877,0.4809829
3187.806,0.4797192
3189.734,0.478367
3191.663,0.477239
3193.591,0.4761786
3195.52,0.4750084
3197.448,0.4738211
3199.377,0.4726954
3201.305,0.4714121
3203.234,0.470389
3205.162,0.4693062
3207.091,0.468181
3209.019,0.4671347
3210.948,0.4660792
3212.876,0.4650239
3214.805,0.4637681
3216.733,0.4627316
3218.662,0.4615484
3220.59,0.46031
3222.519,0.4594345
3224.447,0.4585139
3226.376,0.457304
3228.304,0.456257
3230.233,0.4553249
3232.161,0.4545887
3234.09,0.4535793
3236.018,0.4522967
3237.947,0.4511574
3239.875,0.4503076
3241.804,0.4492723
3243.732,0.4482035
3245.661,0.4471166
3247.589,0.4461569
3249.518,0.4448518
3251.446,0.4437726
3253.375,0.4427501
3255.303,0.4419189
3257.232,0.4410396
3259.16,0.4398614
3261.089,0.4386253
3263.017,0.4374919
3264.946,0.4362985
3266.874,0.4353032
3268.803,0.4346195
3270.731,0.4335828
3272.66,0.4323796
3274.588,0.4316637
3276.517,0.430786
3278.445,0.429578
3280.374,0.4284694
3282.302,0.4275277
3284.231,0.4266698
3286.159,0.4257601
3288.088,0.424798
3290.016,0.4238726
3291.945,0.4227779
3293.873,0.4215308
3295.802,0.4205196
3297.73,0.4197759
3299.659,0.4188975
3301.587,0.4177613
3303.516,0.4169035
3305.444,0.4160477
3307.373,0.4150054
3309.301,0.4141176
3311.23,0.4130943
3313.158,0.4122176
3315.087,0.4113375
3317.015,0.4106044
3318.944,0.4095284
3320.872,0.4086633
3322.801,0.4077579
3324.729,0.4067971
3326.658,0.4059964
3328.586,0.405101
3330.515,0.4040702
3332.443,0.4034546
3334.372,0.4026492
3336.3,0.401522
3338.229,0.4004718
3340.157,0.3995749
3342.086,0.3986806
3344.014,0.3979884
3345.943,0.3970158
3347.871,0.3959187
3349.8,0.3950934
3351.728,0.3942911
3353.657,0.3934167
3355.585,0.3925487
3357.514,0.3916295
3359.442,0.3907393
3361.371,0.3899267
3363.299,0.3891199
3365.228,0.3881745
3367.156,0.3875079
3369.085,0.3867083
3371.013,0.3857918
3372.942,0.3848299
3374.87,0.3839737
3376.799,0.3831285
3378.727,0.3824718
3380.656,0.3817796
3382.584,0.3808357
3384.513,0.3797726
3386.441,0.3790928
3388.37,0.378408
3390.298,0.377639
3392.227,0.3767639
3394.155,0.3759653
3396.083,0.3750445
3398.012,0.3740268
3399.941,0.3731742
3401.869,0.3723166
3403.798,0.3713339
3405.726,0.3702438
3407.655,0.3695776
3409.583,0.3689548
3411.511,0.3678677
3413.44,0.3668104
3415.369,0.3659334
3417.297,0.3649068
3419.226,0.3638718
3421.154,0.3629833
3423.083,0.3622523
3425.011,0.3614025
3426.939,0.3601
3428.868,0.3589351
3430.797,0.3578561
3432.725,0.3568197
3434.654,0.3557352
3436.582,0.3547479
3438.51,0.3536781
3440.439,0.3527659
3442.367,0.351936
3444.296,0.3511627
3446.225,0.3503504
3448.153,0.3497359
3450.082,0.3492346
3452.01,0.3485687
3453.938,0.3479258
3455.867,0.3473494
3457.795,0.3464675
3459.724,0.3456817
3461.653,0.3450913
3463.581,0.3444164
3465.51,0.3436343
3467.438,0.3429618
3469.366,0.3422511
3471.295,0.3417359
3473.223,0.3412015
3475.152,0.3405001
3477.081,0.3398818
3479.009,0.3395236
3480.938,0.3391695
3482.866,0.338659
3484.794,0.3379287
3486.723,0.3374973
3488.651,0.337098
3490.58,0.3367178
3492.509,0.3363262
3494.437,0.3360181
3496.365,0.3356169
3498.294,0.3351731
3500.222,0.3346649
3502.151,0.3343704
3504.079,0.3340422
3506.008,0.3336646
3507.937,0.333079
3509.865,0.3328025
3511.793,0.3326171
3513.722,0.3321145
3515.65,0.3316913
3517.579,0.3312104
3519.507,0.3305544
3521.436,0.3301015
3523.365,0.3295739
3525.293,0.3291465
3527.221,0.3286557
3529.15,0.3284305
3531.078,0.3280258
3533.007,0.3274095
3534.935,0.3267699
3536.864,0.32642
3538.792,0.326004
3540.721,0.3255253
3542.649,0.3250896
3544.578,0.3244259
3546.506,0.3237486
3548.435,0.3231423
3550.363,0.3223769
3552.292,0.3218448
3554.22,0.3215008
3556.149,0.3208977
3558.077,0.3203226
3560.006,0.3198638
3561.934,0.3192413
3563.863,0.3185111
3565.791,0.3177247
3567.72,0.3171103
3569.648,0.3167683
3571.577,0.316319
3573.505,0.3157463
3575.434,0.3151871
3577.362,0.3145455
3579.291,0.313986
3581.219,0.3134137
3583.148,0.3128318
3585.076,0.3121909
3587.005,0.3114907
3588.933,0.3108409
3590.862,0.3104286
3592.79,0.3100157
3594.719,0.3096545
3596.647,0.3092627
3598.576,0.3087117
3600.504,0.3079942
3602.433,0.3074091
3604.361,0.3068952
3606.29,0.3062532
3608.218,0.3055067
3610.147,0.3049552
3612.075,0.3043663
3614.004,0.3039184
3615.932,0.3032697
3617.861,0.3025549
3619.789,0.3021255
3621.718,0.3017558
3623.646,0.3012678
3625.575,0.3005914
3627.503,0.2995186
3629.432,0.2988978
3631.36,0.2986726
3633.289,0.298326
3635.217,0.2977843
3637.146,0.2972617
3639.074,0.296633
3641.003,0.2959741
3642.931,0.295242
3644.86,0.2942239
3646.788,0.2928607
3648.717,0.2919273
3650.645,0.2917864
3652.574,0.2918099
3654.502,0.2913322
3656.431,0.29094
3658.359,0.2904742
3660.288,0.2898448
3662.216,0.2893249
3664.145,0.288821
3666.073,0.2883599
3668.002,0.2875313
3669.93,0.2865383
3671.859,0.2862748
3673.787,0.2857173
3675.716,0.2848566
3677.644,0.2845551
3679.573,0.2841606
3681.501,0.2837077
3683.43,0.2832823
3685.358,0.2826961
3687.287,0.2817262
3689.215,0.2811857
3691.144,0.2812696
3693.072,0.2809158
3695.001,0.2803594
3696.929,0.279985
3698.858,0.2794107
3700.786,0.2787855
3702.715,0.2782761
3704.643,0.2779566
3706.572,0.277604
3708.5,0.2767884
3710.429,0.2761537
3712.357,0.2758011
3714.286,0.2756071
3716.214,0.2751141
3718.143,0.2744918
3720.071,0.2737971
3722,0.2730741
3723.928,0.272262
3725.857,0.271516
3727.785,0.2708563
3729.714,0.2699336
3731.642,0.2687836
3733.571,0.268158
3735.499,0.2674074
3737.427,0.2671372
3739.356,0.2673029
3741.285,0.2674816
3743.213,0.26718
3745.142,0.2674709
3747.07,0.2679123
3748.999,0.2675178
3750.927,0.2671954
3752.855,0.2674318
3754.784,0.2677101
3756.713,0.2673613
3758.641,0.2668269
3760.57,0.2666199
3762.498,0.2665577
3764.427,0.2662706
3766.355,0.2658207
3768.283,0.2652233
3770.212,0.2648105
3772.141,0.2644712
3774.069,0.2640396
3775.998,0.2637332
3777.926,0.2632696
3779.854,0.2628051
3781.783,0.262404
3783.711,0.2620159
3785.64,0.2617324
3787.569,0.2612593
3789.497,0.2603694
3791.426,0.2600005
3793.354,0.2597137
3795.282,0.258954
3797.211,0.2584149
3799.139,0.2578103
3801.068,0.2570951
3802.997,0.2571318
3804.925,0.256582
3806.854,0.2560064
3808.782,0.2558686
3810.71,0.2555537
3812.639,0.255099
3814.567,0.2543167
3816.496,0.2536722
3818.425,0.2534124
3820.353,0.2527526
3822.281,0.2526128
3824.21,0.2522887
3826.138,0.2516426
3828.067,0.2512911
3829.995,0.2506599
3831.924,0.2498773
3833.853,0.2496809
3835.781,0.249209
3837.709,0.2485951
3839.638,0.2484665
3841.566,0.2481703
3843.495,0.2477173
3845.423,0.2473091
3847.352,0.2470021
3849.281,0.2463974
3851.209,0.2453505
3853.137,0.2445836
3855.066,0.2446666
3856.994,0.2447703
3858.923,0.2444196
3860.851,0.2438587
3862.78,0.2432226
3864.708,0.2426454
3866.637,0.2422098
3868.565,0.2414783
3870.494,0.241003
3872.422,0.2411207
3874.351,0.2409618
3876.279,0.2405326
3878.208,0.2398112
3880.136,0.2392997
3882.065,0.2391523
3883.993,0.2386515
3885.922,0.2379446
3887.85,0.2375232
3889.779,0.2370486
3891.707,0.2368676
3893.636,0.2365609
3895.564,0.2361637
3897.493,0.235799
3899.421,0.2353165
3901.35,0.2349134
3903.278,0.2344718
3905.207,0.2341247
3907.135,0.2340407
3909.064,0.2336348
3910.992,0.2330596
3912.921,0.2325079
3914.849,0.2320622
3916.778,0.2316365
3918.706,0.231245
3920.635,0.2308277
3922.563,0.2306056
3924.492,0.2303175
3926.42,0.2299051
3928.349,0.2293671
3930.277,0.2289918
3932.206,0.2287946
3934.134,0.2284765
3936.063,0.2281803
3937.991,0.2275808
3939.92,0.2270223
3941.848,0.2267135
3943.777,0.2262972
3945.705,0.2259839
3947.634,0.2255292
3949.562,0.2250914
3951.491,0.2249335
3953.419,0.2244526
3955.348,0.2239284
3957.276,0.2236404
3959.205,0.2232864
3961.133,0.2230648
3963.062,0.2227636
3964.99,0.2223287
3966.919,0.2218185
3968.847,0.2213923
3970.776,0.2209074
3972.704,0.2205628
3974.633,0.2203852
3976.561,0.2199217
3978.49,0.2194857
3980.418,0.2192601
3982.347,0.2187148
3984.275,0.2184623
3986.204,0.2182362
3988.132,0.217698
3990.061,0.2174008
3991.989,0.2171671
3993.918,0.2166116
3995.846,0.2160923
3997.775,0.2158176
3999.703,0.2156342
