399.1989,1.143174
401.1274,1.216596
403.0559,1.293105
404.9844,1.369602
406.9129,1.445375
408.8414,1.525898
410.7699,1.606799
412.6984,1.686233
414.6269,1.765315
416.5554,1.844511
418.4839,1.920853
420.4124,1.998486
422.3409,2.074643
424.2694,2.146381
426.1979,2.217385
428.1264,2.284925
430.0549,2.348732
431.9834,2.412273
433.9119,2.473291
435.8404,2.529917
437.7689,2.586956
439.6974,2.642679
441.6259,2.692058
443.5544,2.739818
445.4829,2.785981
447.4114,2.825461
449.3399,2.860444
451.2684,2.891113
453.1969,2.918289
455.1254,2.945028
457.0539,2.970553
458.9824,2.993759
460.9109,3.017163
462.8394,3.040815
464.7679,3.062185
466.6964,3.08606
468.6248,3.114311
470.5533,3.144599
472.4818,3.17771
474.4103,3.214013
476.3388,3.252928
478.2673,3.295126
480.1958,3.340106
482.1243,3.383691
484.0528,3.42665
485.9813,3.473309
487.9098,3.524337
489.8383,3.576457
491.7668,3.629588
493.6953,3.682875
495.6238,3.733976
497.5523,3.781709
499.4808,3.825106
501.4093,3.861217
503.3378,3.893273
505.2663,3.918238
507.1948,3.933027
509.1233,3.938063
511.0518,3.933133
512.9803,3.928702
514.9088,3.961863
516.8373,4.033076
518.7657,4.100143
520.6943,4.146971
522.6227,4.1849
524.5513,4.21934
526.4797,4.253918
528.4083,4.289205
530.3367,4.322664
532.2653,4.356064
534.1937,4.387922
536.1223,4.416478
538.0507,4.44331
539.9792,4.467861
541.9077,4.487678
543.8362,4.507054
545.7647,4.529293
547.6932,4.550686
549.6217,4.571829
551.5502,4.593615
553.4787,4.614536
555.4072,4.634551
557.3357,4.655674
559.2642,4.676178
561.1927,4.697727
563.1212,4.720864
565.0497,4.745771
566.9782,4.778186
568.9067,4.834847
570.8352,4.907168
572.7637,4.969215
574.6922,5.018064
576.6207,5.057217
578.5492,5.088075
580.4777,5.111195
582.4062,5.126425
584.3347,5.132465
586.2632,5.128421
588.1917,5.113308
590.1202,5.082238
592.0486,5.031566
593.9772,4.960985
595.9056,4.87265
597.8342,4.759341
599.7626,4.605245
601.6912,4.422857
603.6196,4.283985
605.5482,4.183466
607.4766,4.081376
609.4052,4.003296
611.3336,4.017597
613.2621,4.110531
615.1906,4.178302
617.1191,4.212327
619.0476,4.244723
620.9761,4.301699
622.9046,4.480743
624.8331,4.843239
626.7616,5.304456
628.6901,5.759499
630.6186,6.084808
632.5471,6.250013
634.4756,6.324076
636.4041,6.372309
638.3326,6.413564
640.2611,6.454278
642.1896,6.49459
644.1181,6.535671
646.0466,6.570496
647.9751,6.604533
649.9036,6.643474
651.8321,6.68083
653.7606,6.714151
655.6891,6.744968
657.6176,6.773911
659.5461,6.802742
661.4745,6.831392
663.4031,6.861509
665.3315,6.888433
667.2601,6.909179
669.1885,6.941185
671.1171,6.978801
673.0455,7.009286
674.9741,7.038961
676.9025,7.067313
678.8311,7.094556
680.7595,7.119759
682.688,7.14478
684.6165,7.168465
686.545,7.192273
688.4735,7.218172
690.402,7.24725
692.3305,7.277739
694.259,7.312073
696.1875,7.350894
698.116,7.390967
700.0445,7.421168
701.973,7.438273
703.9015,7.445168
705.83,7.442664
707.7585,7.429368
709.687,7.402732
711.6155,7.357703
713.544,7.293704
715.4725,7.223816
717.401,7.166975
719.3295,7.123632
721.258,7.08526
723.1865,7.048067
725.115,7.011045
727.0435,6.974978
728.972,6.941954
730.9005,6.910363
732.829,6.87942
734.7574,6.850262
736.686,6.826815
738.6144,6.816967
740.543,6.837324
742.4714,6.886744
744.4,6.939378
746.3284,6.981312
748.257,7.014874
750.1854,7.042665
752.114,7.067403
754.0424,7.089351
755.9709,7.108626
757.8994,7.125591
759.8279,7.141651
761.7564,7.15541
763.6849,7.168191
765.6134,7.179464
767.5419,7.188213
769.4704,7.194461
771.3989,7.199883
773.3274,7.203785
775.2559,7.206089
777.1844,7.207893
779.1129,7.209416
781.0414,7.20985
782.9699,7.208262
784.8984,7.202965
786.8269,7.195253
788.7554,7.186068
790.6839,7.177593
792.6124,7.173714
794.5409,7.179377
796.4694,7.199894
798.3979,7.233647
800.3264,7.249285
802.2549,7.232723
804.1833,7.204187
806.1119,7.174987
808.0403,7.152083
809.9689,7.136264
811.8973,7.122952
813.8259,7.109306
815.7543,7.097092
817.6829,7.093489
819.6113,7.099746
821.5399,7.113353
823.4683,7.134297
825.3969,7.162941
827.3253,7.198166
829.2538,7.237367
831.1823,7.273791
833.1108,7.30173
835.0393,7.319537
836.9678,7.327225
838.8963,7.325936
840.8248,7.316923
842.7533,7.302804
844.6818,7.288951
846.6103,7.277411
848.5388,7.26589
850.4673,7.251566
852.3958,7.234244
854.3243,7.213459
856.2528,7.189565
858.1813,7.161696
860.1098,7.129229
862.0383,7.096957
863.9668,7.071701
865.8953,7.055128
867.8238,7.045404
869.7523,7.037905
871.6808,7.031024
873.6093,7.026153
875.5378,7.022355
877.4662,7.019803
879.3948,7.019057
881.3232,7.018431
883.2518,7.018503
885.1802,7.020435
887.1088,7.023495
889.0372,7.027739
890.9658,7.034554
892.8942,7.042554
894.8227,7.052273
896.7512,7.064773
898.6797,7.078129
900.6082,7.092834
902.5367,7.111105
904.4652,7.131237
906.3937,7.153627
908.3222,7.179561
910.2507,7.209035
912.1792,7.2428
914.1077,7.277815
916.0362,7.309339
917.9647,7.338131
919.8932,7.36608
921.8217,7.393014
923.7502,7.419806
925.6786,7.447791
927.6072,7.474655
929.5356,7.49946
931.4642,7.522979
933.3926,7.544469
935.3212,7.563755
937.2496,7.581812
939.1782,7.597175
941.1066,7.609412
943.0352,7.617977
944.9636,7.622606
946.8922,7.624404
948.8206,7.625096
950.7491,7.624997
952.6776,7.624459
954.6061,7.623689
956.5346,7.622177
958.4631,7.619233
960.3916,7.616569
962.3201,7.61604
964.2486,7.62
966.1771,7.628977
968.1056,7.640788
970.0341,7.65332
971.9626,7.665155
973.8911,7.676313
975.8196,7.689797
977.7481,7.704232
979.6766,7.715116
981.6051,7.722871
983.5336,7.729689
985.4621,7.735195
987.3906,7.739824
989.3191,7.744214
991.2476,7.74712
993.1761,7.748894
995.1046,7.751412
997.0331,7.753754
998.9615,7.754494
1000.89,7.752046
1002.819,7.745108
1004.747,7.734014
1006.676,7.717817
1008.604,7.696614
1010.533,7.6722
1012.461,7.64537
1014.39,7.619283
1016.318,7.595299
1018.247,7.573298
1020.175,7.553108
1022.104,7.534734
1024.032,7.517095
1025.961,7.500032
1027.889,7.483252
1029.818,7.46562
1031.746,7.446699
1033.675,7.426261
1035.603,7.403558
1037.531,7.378443
1039.46,7.351042
1041.389,7.321655
1043.317,7.29039
1045.245,7.258384
1047.174,7.225931
1049.103,7.193016
1051.031,7.159454
1052.959,7.125382
1054.888,7.090476
1056.817,7.054475
1058.745,7.017773
1060.673,6.980822
1062.602,6.943779
1064.531,6.906559
1066.459,6.86811
1068.387,6.828094
1070.316,6.785797
1072.245,6.739777
1074.173,6.691817
1076.101,6.64599
1078.03,6.60078
1079.958,6.554829
1081.887,6.516161
1083.815,6.479257
1085.744,6.430971
1087.672,6.370455
1089.601,6.301325
1091.529,6.226879
1093.458,6.149
1095.386,6.071384
1097.315,5.999375
1099.243,5.935774
1101.172,5.8836
1103.1,5.846245
1105.029,5.823652
1106.957,5.816785
1108.886,5.826548
1110.814,5.851178
1112.743,5.889266
1114.671,5.942093
1116.6,6.008017
1118.528,6.083836
1120.457,6.167005
1122.385,6.253869
1124.314,6.342612
1126.242,6.430391
1128.171,6.511718
1130.099,6.582704
1132.028,6.642039
1133.956,6.689275
1135.885,6.726258
1137.813,6.753514
1139.742,6.77061
1141.67,6.782861
1143.599,6.798851
1145.527,6.813693
1147.456,6.822099
1149.384,6.828359
1151.313,6.844077
1153.241,6.872385
1155.17,6.898995
1157.098,6.918003
1159.027,6.933498
1160.955,6.94674
1162.884,6.956895
1164.812,6.965988
1166.741,6.977018
1168.669,6.986663
1170.598,6.993747
1172.526,7.000111
1174.455,7.003652
1176.383,6.99786
1178.312,6.97309
1180.24,6.950008
1182.169,6.984536
1184.097,7.042701
1186.026,7.071667
1187.954,7.086027
1189.883,7.097384
1191.811,7.106393
1193.74,7.113345
1195.668,7.120391
1197.597,7.125956
1199.525,7.131992
1201.454,7.137162
1203.382,7.140862
1205.311,7.143587
1207.239,7.146112
1209.168,7.147101
1211.096,7.147028
1213.025,7.146032
1214.953,7.144831
1216.882,7.143129
1218.81,7.141001
1220.739,7.137433
1222.667,7.133734
1224.596,7.130396
1226.524,7.12711
1228.453,7.12375
1230.381,7.121317
1232.31,7.118612
1234.238,7.11613
1236.167,7.113243
1238.095,7.109723
1240.024,7.10562
1241.952,7.100103
1243.881,7.092272
1245.809,7.084412
1247.738,7.076293
1249.666,7.066384
1251.595,7.054152
1253.523,7.0397
1255.452,7.019704
1257.38,6.995389
1259.309,6.970549
1261.237,6.950195
1263.166,6.938303
1265.094,6.93621
1267.023,6.939963
1268.951,6.945971
1270.88,6.948104
1272.808,6.944157
1274.737,6.937033
1276.665,6.928507
1278.594,6.917813
1280.522,6.904931
1282.451,6.891057
1284.379,6.876496
1286.308,6.861427
1288.236,6.847037
1290.165,6.832428
1292.093,6.818471
1294.022,6.804274
1295.95,6.790175
1297.879,6.776925
1299.807,6.764255
1301.736,6.751151
1303.664,6.738494
1305.593,6.727044
1307.521,6.716319
1309.45,6.705258
1311.378,6.694309
1313.307,6.68295
1315.235,6.671982
1317.164,6.660953
1319.092,6.649905
1321.021,6.638893
1322.949,6.627844
1324.878,6.61647
1326.806,6.605002
1328.735,6.593553
1330.663,6.582258
1332.592,6.569829
1334.52,6.556863
1336.449,6.542908
1338.377,6.528446
1340.306,6.514181
1342.234,6.500529
1344.163,6.484703
1346.091,6.467492
1348.02,6.449916
1349.948,6.43275
1351.877,6.41525
1353.805,6.398285
1355.734,6.381528
1357.662,6.364876
1359.591,6.346946
1361.519,6.327902
1363.448,6.310585
1365.376,6.295457
1367.305,6.278022
1369.233,6.260747
1371.161,6.243564
1373.09,6.224297
1375.019,6.205914
1376.947,6.190075
1378.875,6.172783
1380.804,6.15483
1382.733,6.134677
1384.661,6.117071
1386.589,6.103171
1388.518,6.093147
1390.447,6.082328
1392.375,6.066202
1394.303,6.047576
1396.232,6.033058
1398.161,6.017969
1400.089,6.004097
1402.017,5.991594
1403.946,5.976292
1405.875,5.962029
1407.803,5.948553
1409.731,5.933221
1411.66,5.917393
1413.589,5.901354
1415.517,5.884289
1417.445,5.861735
1419.374,5.840701
1421.302,5.830671
1423.231,5.81594
1425.159,5.798199
1427.088,5.780989
1429.016,5.75971
1430.945,5.739501
1432.873,5.720186
1434.802,5.694613
1436.73,5.668128
1438.659,5.65463
1440.587,5.638147
1442.516,5.618663
1444.444,5.599991
1446.373,5.580023
1448.301,5.561748
1450.23,5.548318
1452.158,5.533271
1454.087,5.515032
1456.015,5.488932
1457.944,5.478637
1459.872,5.48035
1461.801,5.475104
1463.729,5.463038
1465.658,5.454298
1467.586,5.45074
1469.515,5.44174
1471.443,5.426798
1473.372,5.418309
1475.3,5.416265
1477.229,5.411682
1479.157,5.405229
1481.086,5.394795
1483.014,5.38482
1484.943,5.37377
1486.871,5.359508
1488.8,5.344542
1490.728,5.333961
1492.657,5.326225
1494.585,5.30959
1496.514,5.291909
1498.442,5.282391
1500.371,5.273017
1502.299,5.260565
1504.228,5.23562
1506.156,5.208033
1508.085,5.201352
1510.013,5.197772
1511.942,5.185095
1513.87,5.17146
1515.799,5.153548
1517.727,5.137011
1519.656,5.117058
1521.584,5.097247
1523.513,5.089851
1525.441,5.07818
1527.37,5.065293
1529.298,5.052563
1531.227,5.037158
1533.155,5.017789
1535.084,5.005651
1537.012,4.986798
1538.941,4.956465
1540.869,4.941574
1542.798,4.937396
1544.726,4.928409
1546.655,4.918598
1548.583,4.90531
1550.512,4.890061
1552.44,4.873715
1554.369,4.856019
1556.297,4.835342
1558.226,4.806328
1560.154,4.796016
1562.083,4.798981
1564.011,4.789723
1565.94,4.775839
1567.868,4.75841
1569.797,4.741251
1571.725,4.730757
1573.654,4.713598
1575.582,4.689143
1577.511,4.679557
1579.439,4.673449
1581.368,4.659741
1583.296,4.64545
1585.225,4.6303
1587.153,4.61567
1589.082,4.600892
1591.01,4.586041
1592.939,4.571722
1594.867,4.557169
1596.796,4.542002
1598.724,4.52767
1600.653,4.513013
1602.581,4.497488
1604.51,4.481928
1606.438,4.465604
1608.367,4.447578
1610.295,4.430929
1612.224,4.415262
1614.152,4.394856
1616.081,4.366966
1618.009,4.348339
1619.938,4.337377
1621.866,4.327487
1623.795,4.321255
1625.723,4.315124
1627.652,4.305513
1629.58,4.295081
1631.509,4.283151
1633.437,4.26489
1635.366,4.244957
1637.294,4.237359
1639.223,4.231242
1641.151,4.219434
1643.08,4.205069
1645.008,4.185755
1646.937,4.170794
1648.865,4.162843
1650.794,4.142415
1652.722,4.114281
1654.651,4.112244
1656.579,4.114006
1658.508,4.103556
1660.436,4.088922
1662.365,4.074327
1664.293,4.06345
1666.222,4.051438
1668.15,4.034977
1670.079,4.021176
1672.007,4.011295
1673.936,3.997458
1675.864,3.984449
1677.793,3.976697
1679.721,3.964943
1681.65,3.948783
1683.578,3.924536
1685.507,3.914746
1687.435,3.913297
1689.364,3.903195
1691.292,3.892055
1693.221,3.876525
1695.149,3.853534
1697.078,3.842613
1699.006,3.828337
1700.935,3.814566
1702.863,3.812271
1704.792,3.799928
1706.72,3.787785
1708.649,3.776988
1710.577,3.764827
1712.505,3.749861
1714.434,3.733178
1716.363,3.712789
1718.291,3.70025
1720.219,3.695411
1722.148,3.684659
1724.077,3.671237
1726.005,3.658285
1727.933,3.644126
1729.862,3.62993
1731.791,3.612066
1733.719,3.592818
1735.647,3.587996
1737.576,3.584549
1739.505,3.574903
1741.433,3.56958
1743.361,3.564633
1745.29,3.557766
1747.219,3.549044
1749.147,3.53935
1751.075,3.529146
1753.004,3.523556
1754.932,3.515368
1756.861,3.50435
1758.789,3.495247
1760.718,3.483854
1762.646,3.473385
1764.575,3.465184
1766.503,3.453887
1768.432,3.44157
1770.36,3.429658
1772.289,3.416901
1774.217,3.40946
1776.146,3.402156
1778.074,3.392369
1780.003,3.381257
1781.931,3.371235
1783.86,3.360605
1785.788,3.350163
1787.717,3.341225
1789.645,3.329636
1791.574,3.315901
1793.502,3.30665
1795.431,3.299078
1797.359,3.288773
1799.288,3.277824
1801.216,3.267184
1803.145,3.257982
1805.073,3.248866
1807.002,3.238903
1808.93,3.22775
1810.859,3.217381
1812.787,3.207837
1814.716,3.197839
1816.644,3.187551
1818.573,3.177474
1820.501,3.167181
1822.43,3.157092
1824.358,3.14571
1826.287,3.135266
1828.215,3.124475
1830.144,3.113824
1832.072,3.104887
1834.001,3.095683
1835.929,3.085451
1837.858,3.074927
1839.786,3.065061
1841.715,3.053734
1843.643,3.040491
1845.572,3.031766
1847.5,3.023698
1849.429,3.013518
1851.357,3.003508
1853.286,2.992919
1855.214,2.98244
1857.143,2.972893
1859.071,2.962895
1861,2.952449
1862.928,2.942569
1864.857,2.932157
1866.785,2.920698
1868.714,2.909966
1870.642,2.901235
1872.571,2.892364
1874.499,2.883034
1876.428,2.873195
1878.356,2.863069
1880.285,2.853415
1882.213,2.843494
1884.142,2.833524
1886.07,2.824055
1887.999,2.813799
1889.927,2.803635
1891.856,2.795119
1893.784,2.785485
1895.713,2.775276
1897.641,2.766135
1899.57,2.75645
1901.498,2.746737
1903.427,2.737773
1905.355,2.727927
1907.284,2.717816
1909.212,2.708154
1911.141,2.698681
1913.069,2.689176
1914.998,2.679507
1916.926,2.668455
1918.855,2.658711
1920.783,2.650016
1922.712,2.639705
1924.64,2.630182
1926.569,2.620705
1928.497,2.610466
1930.426,2.600513
1932.354,2.590894
1934.283,2.580699
1936.211,2.570821
1938.14,2.561202
1940.068,2.55078
1941.997,2.539996
1943.925,2.53046
1945.854,2.520352
1947.782,2.510341
1949.711,2.500921
1951.639,2.49067
1953.568,2.480732
1955.496,2.471074
1957.425,2.460405
1959.353,2.450536
1961.282,2.441447
1963.21,2.431608
1965.139,2.421902
1967.067,2.412448
1968.996,2.403027
1970.924,2.393987
1972.853,2.384567
1974.781,2.37458
1976.71,2.365532
1978.638,2.356351
1980.567,2.346747
1982.495,2.337649
1984.424,2.328821
1986.352,2.319884
1988.281,2.311594
1990.209,2.30303
1992.138,2.294018
1994.066,2.286473
1995.995,2.278929
1997.923,2.270327
1999.852,2.262384
2001.78,2.254766
2003.709,2.246959
2005.637,2.239929
2007.566,2.233009
2009.494,2.225739
2011.423,2.219218
2013.351,2.21259
2015.28,2.205781
2017.208,2.199612
2019.137,2.193643
2021.065,2.187591
2022.994,2.18178
2024.922,2.175528
2026.851,2.169108
2028.779,2.163811
2030.708,2.158643
2032.636,2.15296
2034.565,2.147702
2036.493,2.142231
2038.422,2.136503
2040.35,2.131055
2042.279,2.12546
2044.207,2.119811
2046.135,2.114879
2048.064,2.109518
2049.992,2.103915
2051.921,2.099013
2053.85,2.093642
2055.778,2.088239
2057.707,2.083283
2059.635,2.0776
2061.563,2.072187
2063.492,2.067596
2065.42,2.062155
2067.349,2.056374
2069.278,2.051117
2071.206,2.045692
2073.135,2.040433
2075.063,2.035545
2076.991,2.029906
2078.92,2.024295
2080.848,2.019051
2082.777,2.013371
2084.706,2.007768
2086.634,2.002814
2088.563,1.997318
2090.491,1.991521
2092.419,1.986524
2094.348,1.980937
2096.276,1.975461
2098.205,1.970053
2100.134,1.964381
2102.062,1.958976
2103.99,1.954045
2105.919,1.94857
2107.847,1.943161
2109.776,1.938099
2111.704,1.932142
2113.633,1.926594
2115.562,1.921456
2117.49,1.916276
2119.418,1.910713
2121.347,1.905568
2123.275,1.900055
2125.204,1.894837
2127.132,1.889509
2129.061,1.884068
2130.99,1.87904
2132.918,1.874249
2134.846,1.868559
2136.775,1.86327
2138.703,1.858487
2140.632,1.853164
2142.56,1.848106
2144.489,1.843079
2146.417,1.837523
2148.346,1.83216
2150.274,1.826969
2152.203,1.82152
2154.131,1.816373
2156.06,1.811028
2157.988,1.805267
2159.917,1.800136
2161.845,1.795121
2163.774,1.789883
2165.702,1.78485
2167.631,1.779347
2169.559,1.77347
2171.488,1.768562
2173.416,1.763575
2175.345,1.758042
2177.273,1.753142
2179.202,1.74824
2181.13,1.743042
2183.059,1.738268
2184.987,1.733273
2186.916,1.72779
2188.844,1.72283
2190.773,1.717849
2192.701,1.712509
2194.63,1.707659
2196.558,1.702553
2198.487,1.69712
2200.415,1.692348
2202.344,1.687611
2204.272,1.682339
2206.201,1.67714
2208.129,1.671934
2210.058,1.666979
2211.986,1.662244
2213.915,1.657026
2215.843,1.65184
2217.772,1.646843
2219.7,1.641499
2221.629,1.636287
2223.557,1.631616
2225.486,1.626691
2227.414,1.621608
2229.343,1.616762
2231.271,1.611481
2233.2,1.606228
2235.128,1.601577
2237.057,1.596734
2238.985,1.591374
2240.914,1.586371
2242.842,1.581375
2244.771,1.576558
2246.699,1.571952
2248.628,1.566718
2250.556,1.561614
2252.485,1.557112
2254.413,1.552037
2256.342,1.546937
2258.27,1.541857
2260.199,1.536684
2262.127,1.531896
2264.056,1.527451
2265.984,1.52264
2267.913,1.517658
2269.841,1.513154
2271.77,1.508339
2273.698,1.503329
2275.627,1.498987
2277.555,1.494281
2279.484,1.489556
2281.412,1.485169
2283.341,1.480278
2285.269,1.475435
2287.198,1.470985
2289.126,1.466262
2291.055,1.461378
2292.983,1.456996
2294.912,1.452303
2296.84,1.447585
2298.769,1.442997
2300.697,1.438111
2302.626,1.4336
2304.554,1.42911
2306.483,1.424428
2308.411,1.420268
2310.34,1.41576
2312.268,1.410784
2314.197,1.406369
2316.125,1.401775
2318.054,1.396939
2319.982,1.39277
2321.911,1.388476
2323.839,1.383308
2325.768,1.378711
2327.696,1.374423
2329.625,1.369799
2331.553,1.365878
2333.482,1.361917
2335.41,1.357375
2337.339,1.353544
2339.267,1.349738
2341.196,1.345866
2343.124,1.342366
2345.053,1.339421
2346.981,1.336473
2348.91,1.333215
2350.838,1.328816
2352.767,1.323497
2354.695,1.318659
2356.624,1.314036
2358.552,1.309191
2360.481,1.305154
2362.409,1.301319
2364.338,1.2976
2366.266,1.294442
2368.195,1.291269
2370.123,1.28816
2372.052,1.285951
2373.98,1.283659
2375.908,1.281009
2377.837,1.278564
2379.766,1.27575
2381.694,1.272787
2383.623,1.270142
2385.551,1.266911
2387.479,1.263557
2389.408,1.260841
2391.336,1.257659
2393.265,1.253979
2395.194,1.25088
2397.122,1.247613
2399.051,1.244093
2400.979,1.240742
2402.907,1.237127
2404.836,1.233613
2406.764,1.230553
2408.693,1.226927
2410.622,1.22304
2412.55,1.219597
2414.479,1.215962
2416.407,1.212453
2418.335,1.209448
2420.264,1.205901
2422.192,1.202417
2424.121,1.199167
2426.05,1.195617
2427.978,1.1923
2429.906,1.189133
2431.835,1.185752
2433.763,1.182571
2435.692,1.179214
2437.62,1.175522
2439.549,1.171996
2441.478,1.168874
2443.406,1.165554
2445.334,1.162385
2447.263,1.159212
2449.191,1.155844
2451.12,1.152506
2453.048,1.149177
2454.977,1.145646
2456.906,1.14238
2458.834,1.139522
2460.762,1.13641
2462.691,1.132844
2464.619,1.129621
2466.548,1.126451
2468.476,1.123334
2470.405,1.120311
2472.333,1.11708
2474.262,1.113918
2476.19,1.111113
2478.119,1.107702
2480.047,1.104478
2481.976,1.101701
2483.904,1.098558
2485.833,1.095284
2487.761,1.092367
2489.69,1.089319
2491.618,1.086336
2493.547,1.083288
2495.475,1.080156
2497.404,1.077179
2499.332,1.074075
2501.261,1.07102
2503.189,1.06828
2505.118,1.065409
2507.046,1.062269
2508.975,1.059458
2510.903,1.05684
2512.832,1.053657
2514.76,1.050781
2516.689,1.048046
2518.617,1.045068
2520.546,1.04237
2522.474,1.039621
2524.403,1.036675
2526.331,1.034103
2528.26,1.031298
2530.188,1.028218
2532.117,1.025419
2534.045,1.022758
2535.974,1.019915
2537.902,1.017187
2539.831,1.014492
2541.759,1.011621
2543.688,1.008775
2545.616,1.006088
2547.545,1.003275
2549.473,1.000506
2551.402,0.9976364
2553.33,0.9947848
2555.259,0.9922544
2557.187,0.9895783
2559.116,0.9867816
2561.044,0.9845501
2562.973,0.9819878
2564.901,0.9791344
2566.83,0.9765468
2568.758,0.9736812
2570.687,0.9710858
2572.615,0.9688827
2574.544,0.966116
2576.472,0.9634339
2578.401,0.9610185
2580.329,0.9582909
2582.258,0.955533
2584.186,0.9529303
2586.115,0.9502688
2588.043,0.9478566
2589.972,0.9455923
2591.9,0.9434628
2593.829,0.9411281
2595.757,0.938655
2597.686,0.9361228
2599.614,0.9333334
2601.543,0.9306896
2603.471,0.9279014
2605.4,0.9253473
2607.328,0.9231003
2609.257,0.9206021
2611.185,0.9181709
2613.114,0.9159978
2615.042,0.9135136
2616.971,0.9109201
2618.899,0.9084536
2620.828,0.9059067
2622.756,0.9036123
2624.685,0.901379
2626.613,0.8988037
2628.542,0.8964438
2630.47,0.8943022
2632.399,0.8917097
2634.327,0.8892931
2636.256,0.8873472
2638.184,0.88494
2640.113,0.8823352
2642.041,0.8800086
2643.97,0.8775821
2645.898,0.8752593
2647.827,0.8730502
2649.755,0.8706187
2651.684,0.868064
2653.612,0.8658618
2655.541,0.8636512
2657.469,0.8613944
2659.398,0.8592418
2661.326,0.8568118
2663.255,0.8543728
2665.183,0.852164
2667.112,0.8497097
2669.04,0.8474779
2670.969,0.8451223
2672.897,0.8429758
2674.826,0.8410316
2676.754,0.8388835
2678.683,0.8368123
2680.611,0.8346126
2682.54,0.8323704
2684.468,0.830079
2686.397,0.8276009
2688.325,0.8253917
2690.254,0.8232545
2692.182,0.8213814
2694.111,0.8192919
2696.039,0.8168877
2697.968,0.8147816
2699.896,0.8127823
2701.825,0.8104678
2703.753,0.8081689
2705.682,0.806166
2707.61,0.8042312
2709.539,0.8023292
2711.467,0.800341
2713.396,0.7979329
2715.324,0.7957692
2717.253,0.7936128
2719.181,0.7918955
2721.11,0.790125
2723.038,0.7879102
2724.967,0.7858912
2726.895,0.7839431
2728.823,0.7817346
2730.752,0.7795687
2732.681,0.7775129
2734.609,0.7756577
2736.538,0.7736405
2738.466,0.771787
2740.395,0.7697296
2742.323,0.7675928
2744.251,0.7655855
2746.18,0.7636968
2748.109,0.7617224
2750.037,0.7599126
2751.966,0.7578861
2753.894,0.7560309
2755.823,0.7543364
2757.751,0.7524672
2759.679,0.7506055
2761.608,0.7489687
2763.537,0.7472246
2765.465,0.7450503
2767.394,0.7431063
2769.322,0.7414081
2771.25,0.7395266
2773.179,0.7374836
2775.107,0.7356452
2777.036,0.7339289
2778.965,0.7321805
2780.893,0.7303542
2782.822,0.7284343
2784.75,0.7266479
2786.678,0.7249469
2788.607,0.7230951
2790.535,0.7211845
2792.464,0.7195847
2794.393,0.717793
2796.321,0.7159724
2798.25,0.7142476
2800.178,0.7125134
2802.106,0.7105805
2804.035,0.7087107
2805.963,0.7069131
2807.892,0.7049597
2809.821,0.7031645
2811.749,0.7014817
2813.677,0.6997692
2815.606,0.6980948
2817.534,0.6963663
2819.463,0.6947272
2821.391,0.6928225
2823.32,0.690923
2825.249,0.6890635
2827.177,0.6873388
2829.105,0.6856541
2831.034,0.6838773
2832.962,0.682027
2834.891,0.6802682
2836.819,0.6787428
2838.748,0.6769966
2840.677,0.6748397
2842.605,0.6728731
2844.533,0.6707458
2846.462,0.6685157
2848.39,0.6663681
2850.319,0.6644576
2852.247,0.6624951
2854.176,0.6605181
2856.104,0.6587005
2858.033,0.6570246
2859.961,0.6553506
2861.89,0.6540905
2863.818,0.6527367
2865.747,0.6508955
2867.675,0.6491558
2869.604,0.6474403
2871.532,0.6456671
2873.461,0.6443906
2875.389,0.6429277
2877.318,0.6410144
2879.246,0.6395447
2881.175,0.6385314
2883.103,0.6369779
2885.032,0.6353806
2886.96,0.6338428
2888.889,0.6320145
2890.817,0.6302327
2892.746,0.628664
2894.674,0.626693
2896.603,0.6251257
2898.531,0.6237002
2900.46,0.6218329
2902.388,0.620225
2904.317,0.618638
2906.245,0.6166889
2908.174,0.6149917
2910.102,0.6133606
2912.031,0.6115984
2913.959,0.6099186
2915.888,0.6081002
2917.816,0.6058123
2919.745,0.603619
2921.673,0.6018836
2923.602,0.6001002
2925.53,0.5987366
2927.459,0.597473
2929.387,0.5959104
2931.316,0.5945244
2933.244,0.5933387
2935.173,0.5919394
2937.101,0.5908315
2939.03,0.5898042
2940.958,0.5887506
2942.887,0.5876179
2944.815,0.5862791
2946.744,0.584843
2948.672,0.5834009
2950.601,0.5819175
2952.529,0.5804179
2954.458,0.5788302
2956.386,0.5767361
2958.315,0.5748267
2960.243,0.5734468
2962.172,0.5721035
2964.1,0.5707708
2966.029,0.5698856
2967.957,0.5690151
2969.886,0.5682969
2971.814,0.5675262
2973.743,0.5668533
2975.671,0.5660977
2977.6,0.5650245
2979.528,0.5639216
2981.457,0.563041
2983.385,0.5621938
2985.314,0.5612988
2987.242,0.5600355
2989.171,0.5586973
2991.099,0.5575573
2993.028,0.5561808
2994.956,0.5548558
2996.885,0.5537315
2998.813,0.5524525
3000.742,0.5513142
3002.67,0.5501533
3004.599,0.5489561
3006.527,0.5475242
3008.456,0.5463218
3010.384,0.5450868
3012.313,0.5440031
3014.241,0.5426173
3016.17,0.541073
3018.098,0.5398116
3020.027,0.5387607
3021.955,0.537644
3023.884,0.5363141
3025.812,0.5348617
3027.741,0.5336319
3029.669,0.5325823
3031.598,0.5314291
3033.526,0.5300624
3035.455,0.5286746
3037.383,0.5274164
3039.312,0.5265537
3041.24,0.5257544
3043.169,0.5243731
3045.097,0.5228894
3047.026,0.5215879
3048.954,0.5204117
3050.883,0.519381
3052.811,0.5181129
3054.74,0.516847
3056.668,0.5154176
3058.597,0.5141959
3060.525,0.5130732
3062.454,0.5117789
3064.382,0.5105833
3066.311,0.5096033
3068.239,0.5084106
3070.167,0.5072394
3072.096,0.5058522
3074.025,0.5046931
3075.953,0.5036539
3077.882,0.5023085
3079.81,0.5008786
3081.739,0.499764
3083.667,0.4986562
3085.595,0.4976239
3087.524,0.4964874
3089.453,0.4951587
3091.381,0.4939283
3093.31,0.4928541
3095.238,0.4916856
3097.167,0.4904896
3099.095,0.4893269
3101.023,0.4880574
3102.952,0.4866093
3104.881,0.4853975
3106.809,0.4843353
3108.738,0.4833167
3110.666,0.4821456
3112.594,0.4808894
3114.523,0.4796873
3116.451,0.478832
3118.38,0.4778027
3120.309,0.4766931
3122.237,0.4753082
3124.166,0.4740357
3126.094,0.4728447
3128.022,0.4717439
3129.951,0.4706937
3131.879,0.469562
3133.808,0.4685817
3135.737,0.4673712
3137.665,0.4661259
3139.594,0.4651389
3141.522,0.4641433
3143.45,0.4631439
3145.379,0.4621513
3147.307,0.4607966
3149.236,0.4594004
3151.165,0.4584662
3153.093,0.4574473
3155.021,0.456416
3156.95,0.4552895
3158.878,0.4544143
3160.807,0.4533481
3162.735,0.4522299
3164.664,0.4512513
3166.593,0.4500369
3168.521,0.4488368
3170.449,0.4478965
3172.378,0.4468978
3174.306,0.4457024
3176.235,0.4445056
3178.163,0.4434183
3180.092,0.4423279
3182.021,0.4415665
3183.949,0.4405484
3185.877,0.4395204
3187.806,0.4383958
3189.734,0.4374207
3191.663,0.4365328
3193.591,0.4355385
3195.52,0.4342368
3197.448,0.4329759
3199.377,0.432104
3201.305,0.4311856
3203.234,0.4299347
3205.162,0.4288721
3207.091,0.4279904
3209.019,0.4271045
3210.948,0.4261662
3212.876,0.425129
3214.805,0.4242572
3216.733,0.423393
3218.662,0.4225377
3220.59,0.4215389
3222.519,0.4204348
3224.447,0.4195071
3226.376,0.4185658
3228.304,0.4174801
3230.233,0.416494
3232.161,0.4157335
3234.09,0.4150531
3236.018,0.4142197
3237.947,0.4129406
3239.875,0.4117867
3241.804,0.4106999
3243.732,0.4098171
3245.661,0.4090812
3247.589,0.4082321
3249.518,0.4070655
3251.446,0.4061177
3253.375,0.4053639
3255.303,0.4043179
3257.232,0.4033834
3259.16,0.4026582
3261.089,0.4017567
3263.017,0.4007999
3264.946,0.3995959
3266.874,0.3985552
3268.803,0.3977352
3270.731,0.3970256
3272.66,0.3962788
3274.588,0.395406
3276.517,0.3942032
3278.445,0.3931653
3280.374,0.392392
3282.302,0.3914621
3284.231,0.3905188
3286.159,0.3896762
3288.088,0.3887759
3290.016,0.387895
3291.945,0.3870398
3293.873,0.3860351
3295.802,0.3849417
3297.73,0.384254
3299.659,0.38357
3301.587,0.3826888
3303.516,0.381973
3305.444,0.3811716
3307.373,0.3802271
3309.301,0.3794395
3311.23,0.3785292
3313.158,0.3776378
3315.087,0.3768282
3317.015,0.3759303
3318.944,0.3750848
3320.872,0.374298
3322.801,0.3733791
3324.729,0.3724307
3326.658,0.3716682
3328.586,0.3710507
3330.515,0.3701368
3332.443,0.3693396
3334.372,0.3684594
3336.3,0.3675779
3338.229,0.3669486
3340.157,0.3662497
3342.086,0.3652873
3344.014,0.3642841
3345.943,0.3635283
3347.871,0.3628753
3349.8,0.3619471
3351.728,0.3611469
3353.657,0.3603207
3355.585,0.359511
3357.514,0.358824
3359.442,0.3584243
3361.371,0.3575559
3363.299,0.3563187
3365.228,0.3554599
3367.156,0.3548827
3369.085,0.3541108
3371.013,0.3533629
3372.942,0.3527253
3374.87,0.3519943
3376.799,0.3513183
3378.727,0.3504665
3380.656,0.3494809
3382.584,0.3487759
3384.513,0.3481362
3386.441,0.3472806
3388.37,0.3464648
3390.298,0.3458503
3392.227,0.3452747
3394.155,0.3445938
3396.083,0.3436397
3398.012,0.3427818
3399.941,0.3418105
3401.869,0.3410881
3403.798,0.3403887
3405.726,0.339552
3407.655,0.3385469
3409.583,0.3379125
3411.511,0.3373087
3413.44,0.3365962
3415.369,0.3355372
3417.297,0.3344426
3419.226,0.3335065
3421.154,0.3326437
3423.083,0.3319828
3425.011,0.3309708
3426.939,0.3298184
3428.868,0.3288984
3430.797,0.3280124
3432.725,0.3270622
3434.654,0.3258753
3436.582,0.3248664
3438.51,0.3242226
3440.439,0.3236205
3442.367,0.3228044
3444.296,0.3220082
3446.225,0.32125
3448.153,0.320828
3450.082,0.3202797
3452.01,0.3195362
3453.938,0.3189267
3455.867,0.318502
3457.795,0.3179047
3459.724,0.317061
3461.653,0.316469
3463.581,0.3159419
3465.51,0.3152896
3467.438,0.3149054
3469.366,0.3143815
3471.295,0.3136155
3473.223,0.3129269
3475.152,0.3123728
3477.081,0.3117038
3479.009,0.3112621
3480.938,0.3108723
3482.866,0.3104027
3484.794,0.3098263
3486.723,0.3093304
3488.651,0.3089971
3490.58,0.3087301
3492.509,0.3084046
3494.437,0.3082106
3496.365,0.3080055
3498.294,0.3076818
3500.222,0.3072012
3502.151,0.3067521
3504.079,0.3064809
3506.008,0.3060755
3507.937,0.3056732
3509.865,0.3053616
3511.793,0.304899
3513.722,0.3044319
3515.65,0.3042978
3517.579,0.3041112
3519.507,0.3035136
3521.436,0.3030254
3523.365,0.3026912
3525.293,0.3023737
3527.221,0.3019198
3529.15,0.3014261
3531.078,0.3009157
3533.007,0.3003598
3534.935,0.2997063
3536.864,0.2994118
3538.792,0.2988938
3540.721,0.2984834
3542.649,0.2981072
3544.578,0.2974718
3546.506,0.2968099
3548.435,0.2965952
3550.363,0.2961667
3552.292,0.2954123
3554.22,0.2947854
3556.149,0.2943242
3558.077,0.2940237
3560.006,0.2936264
3561.934,0.2929297
3563.863,0.2921416
3565.791,0.2915591
3567.72,0.2912336
3569.648,0.290957
3571.577,0.2905728
3573.505,0.2898502
3575.434,0.2893043
3577.362,0.2886649
3579.291,0.2882209
3581.219,0.287799
3583.148,0.287344
3585.076,0.2868116
3587.005,0.2859567
3588.933,0.2854261
3590.862,0.2852342
3592.79,0.2847357
3594.719,0.2842097
3596.647,0.2837024
3598.576,0.2832297
3600.504,0.2828768
3602.433,0.2827642
3604.361,0.2822407
3606.29,0.2812551
3608.218,0.2805194
3610.147,0.2799765
3612.075,0.2795576
3614.004,0.2790947
3615.932,0.2784798
3617.861,0.2778991
3619.789,0.2773464
3621.718,0.2770448
3623.646,0.2767777
3625.575,0.2761992
3627.503,0.2751839
3629.432,0.2742898
3631.36,0.2740703
3633.289,0.2740662
3635.217,0.2735552
3637.146,0.2729733
3639.074,0.2723405
3641.003,0.2718298
3642.931,0.2712412
3644.86,0.2703004
3646.788,0.2689501
3648.717,0.2678991
3650.645,0.2679135
3652.574,0.2682099
3654.502,0.2679175
3656.431,0.2673264
3658.359,0.2667982
3660.288,0.2664067
3662.216,0.2659669
3664.145,0.265253
3666.073,0.2644784
3668.002,0.263798
3669.93,0.2631959
3671.859,0.2631131
3673.787,0.26265
3675.716,0.2617303
3677.644,0.2612669
3679.573,0.2608794
3681.501,0.2606416
3683.43,0.2603847
3685.358,0.2598752
3687.287,0.2590933
3689.215,0.2585051
3691.144,0.2582276
3693.072,0.2577465
3695.001,0.2574061
3696.929,0.2570046
3698.858,0.2566327
3700.786,0.2562289
3702.715,0.2559696
3704.643,0.2556707
3706.572,0.2553866
3708.5,0.2547779
3710.429,0.2540505
3712.357,0.2537277
3714.286,0.2533659
3716.214,0.2525965
3718.143,0.2517599
3720.071,0.2513947
3722,0.2512034
3723.928,0.2504588
3725.857,0.2497195
3727.785,0.2490696
3729.714,0.2483517
3731.642,0.2473612
3733.571,0.2466718
3735.499,0.2458981
3737.427,0.245799
3739.356,0.2462618
3741.285,0.2463669
3743.213,0.2456478
3745.142,0.2457256
3747.07,0.2462152
3748.999,0.2461314
3750.927,0.2460386
3752.855,0.2461201
3754.784,0.2463526
3756.713,0.2461828
3758.641,0.2459046
3760.57,0.2456418
3762.498,0.2454773
3764.427,0.2449231
3766.355,0.2444323
3768.283,0.2440967
3770.212,0.2437471
3772.141,0.2435033
3774.069,0.2431993
3775.998,0.2426684
3777.926,0.2419761
3779.854,0.2415651
3781.783,0.2413238
3783.711,0.2411087
3785.64,0.240722
3787.569,0.2400543
3789.497,0.2395929
3791.426,0.2393427
3793.354,0.2388257
3795.282,0.2382594
3797.211,0.2377929
3799.139,0.2371136
3801.068,0.2362871
3802.997,0.2361951
3804.925,0.2361444
3806.854,0.2358679
3808.782,0.2357806
3810.71,0.235402
3812.639,0.2347175
3814.567,0.2339227
3816.496,0.2334237
3818.425,0.233216
3820.353,0.2325444
3822.281,0.2324117
3824.21,0.2322093
3826.138,0.2316997
3828.067,0.2311973
3829.995,0.2307072
3831.924,0.230332
3833.853,0.2298712
3835.781,0.2292907
3837.709,0.2287874
3839.638,0.2285817
3841.566,0.2284314
3843.495,0.2281406
3845.423,0.2277001
3847.352,0.2273639
3849.281,0.2268404
3851.209,0.2257761
3853.137,0.2247186
3855.066,0.2247084
3856.994,0.2251008
3858.923,0.2249828
3860.851,0.2244039
3862.78,0.2238658
3864.708,0.2234615
3866.637,0.2230906
3868.565,0.2224361
3870.494,0.2220533
3872.422,0.2218996
3874.351,0.2215645
3876.279,0.2214547
3878.208,0.2211068
3880.136,0.2206693
3882.065,0.2203467
3883.993,0.2198023
3885.922,0.2193163
3887.85,0.21897
3889.779,0.2185825
3891.707,0.2183819
3893.636,0.2182171
3895.564,0.2178791
3897.493,0.2170356
3899.421,0.2164338
3901.35,0.2161539
3903.278,0.2158472
3905.207,0.215646
3907.135,0.215461
3909.064,0.2150519
3910.992,0.2147782
3912.921,0.2143603
3914.849,0.2137599
3916.778,0.2132979
3918.706,0.2130112
3920.635,0.2127504
3922.563,0.2125109
3924.492,0.2122587
3926.42,0.2118687
3928.349,0.211407
3930.277,0.2111942
3932.206,0.2108487
3934.134,0.2103885
3936.063,0.2098856
3937.991,0.2096055
3939.92,0.2094196
3941.848,0.2090628
3943.777,0.2087325
3945.705,0.2084047
3947.634,0.2080281
3949.562,0.2075789
3951.491,0.2070637
3953.419,0.2066037
3955.348,0.2064084
3957.276,0.2063146
3959.205,0.2060042
3961.133,0.2054099
3963.062,0.204867
3964.99,0.2044857
3966.919,0.2042378
3968.847,0.2040159
3970.776,0.2035852
3972.704,0.2032763
3974.633,0.2031149
3976.561,0.2029596
3978.49,0.2026865
3980.418,0.2021656
3982.347,0.2015843
3984.275,0.2012582
3986.204,0.2010591
3988.132,0.2007415
3990.061,0.2004151
3991.989,0.2000541
3993.918,0.1994984
3995.846,0.1991796
3997.775,0.1991819
3999.703,0.198886
