399.1989,1.147956
401.1274,1.222526
403.0559,1.297965
404.9844,1.374979
406.9129,1.453399
408.8414,1.535294
410.7699,1.617325
412.6984,1.699024
414.6269,1.780286
416.5554,1.858533
418.4839,1.933719
420.4124,2.012403
422.3409,2.089338
424.2694,2.162158
426.1979,2.233423
428.1264,2.301502
430.0549,2.367026
431.9834,2.43155
433.9119,2.492987
435.8404,2.551213
437.7689,2.609477
439.6974,2.664586
441.6259,2.713856
443.5544,2.76165
445.4829,2.808204
447.4114,2.849558
449.3399,2.885777
451.2684,2.91758
453.1969,2.94545
455.1254,2.973305
457.0539,2.999188
458.9824,3.021335
460.9109,3.04365
462.8394,3.067909
464.7679,3.091111
466.6964,3.115701
468.6248,3.145892
470.5533,3.178228
472.4818,3.212039
474.4103,3.247663
476.3388,3.284411
478.2673,3.326739
480.1958,3.37312
482.1243,3.418667
484.0528,3.46369
485.9813,3.512795
487.9098,3.564951
489.8383,3.61813
491.7668,3.671747
493.6953,3.724491
495.6238,3.774995
497.5523,3.82264
499.4808,3.867015
501.4093,3.905654
503.3378,3.939959
505.2663,3.96753
507.1948,3.984945
509.1233,3.992778
511.0518,3.990102
512.9803,3.987702
514.9088,4.018537
516.8373,4.086065
518.7657,4.150397
520.6943,4.198517
522.6227,4.237472
524.5513,4.270901
526.4797,4.304459
528.4083,4.340983
530.3367,4.374648
532.2653,4.407815
534.1937,4.439766
536.1223,4.469201
538.0507,4.498099
539.9792,4.52503
541.9077,4.546833
543.8362,4.567566
545.7647,4.590672
547.6932,4.61257
549.6217,4.633641
551.5502,4.65606
553.4787,4.679149
555.4072,4.702109
557.3357,4.725545
559.2642,4.748856
561.1927,4.772609
563.1212,4.797735
565.0497,4.823338
566.9782,4.856775
568.9067,4.914805
570.8352,4.991107
572.7637,5.058721
574.6922,5.111751
576.6207,5.154853
578.5492,5.189575
580.4777,5.214848
582.4062,5.231314
584.3347,5.239252
586.2632,5.238429
588.1917,5.227214
590.1202,5.199664
592.0486,5.152128
593.9772,5.084476
595.9056,4.996709
597.8342,4.883121
599.7626,4.726623
601.6912,4.542735
603.6196,4.400751
605.5482,4.299734
607.4766,4.197403
609.4052,4.119926
611.3336,4.137253
613.2621,4.232727
615.1906,4.305096
617.1191,4.341438
619.0476,4.373212
620.9761,4.43336
622.9046,4.61962
624.8331,4.993306
626.7616,5.470061
628.6901,5.94162
630.6186,6.278655
632.5471,6.449013
634.4756,6.524225
636.4041,6.571628
638.3326,6.614071
640.2611,6.656815
642.1896,6.700315
644.1181,6.742506
646.0466,6.777411
647.9751,6.810779
649.9036,6.848688
651.8321,6.884123
653.7606,6.916459
655.6891,6.947297
657.6176,6.977507
659.5461,7.007019
661.4745,7.035849
663.4031,7.064456
665.3315,7.089848
667.2601,7.109095
669.1885,7.138517
671.1171,7.173524
673.0455,7.204469
674.9741,7.235241
676.9025,7.26439
678.8311,7.291522
680.7595,7.315422
682.688,7.337653
684.6165,7.35913
686.545,7.381694
688.4735,7.406729
690.402,7.436263
692.3305,7.467926
694.259,7.501699
696.1875,7.539792
698.116,7.578408
700.0445,7.605481
701.973,7.619689
703.9015,7.625138
705.83,7.622756
707.7585,7.609103
709.687,7.581295
711.6155,7.534493
713.544,7.466224
715.4725,7.391737
717.401,7.33161
719.3295,7.285402
721.258,7.244899
723.1865,7.206237
725.115,7.16906
727.0435,7.131985
728.972,7.096015
730.9005,7.061537
732.829,7.028309
734.7574,6.997392
736.686,6.972309
738.6144,6.961805
740.543,6.983207
742.4714,7.033893
744.4,7.086373
746.3284,7.127387
748.257,7.160271
750.1854,7.187954
752.114,7.212327
754.0424,7.234686
755.9709,7.255147
757.8994,7.273136
759.8279,7.289334
761.7564,7.303103
763.6849,7.314744
765.6134,7.325014
767.5419,7.33363
769.4704,7.340776
771.3989,7.347103
773.3274,7.351593
775.2559,7.35505
777.1844,7.357941
779.1129,7.359014
781.0414,7.357521
782.9699,7.354884
784.8984,7.349759
786.8269,7.342745
788.7554,7.335061
790.6839,7.328033
792.6124,7.324668
794.5409,7.33055
796.4694,7.350674
798.3979,7.384796
800.3264,7.401318
802.2549,7.385602
804.1833,7.357725
806.1119,7.330004
808.0403,7.308172
809.9689,7.291935
811.8973,7.277861
813.8259,7.263654
815.7543,7.251635
817.6829,7.249405
819.6113,7.257707
821.5399,7.273362
823.4683,7.296748
825.3969,7.326913
827.3253,7.362994
829.2538,7.403621
831.1823,7.442339
833.1108,7.47204
835.0393,7.49086
836.9678,7.499892
838.8963,7.499912
840.8248,7.492843
842.7533,7.479598
844.6818,7.464808
846.6103,7.452724
848.5388,7.441597
850.4673,7.428508
852.3958,7.412965
854.3243,7.394053
856.2528,7.371052
858.1813,7.343781
860.1098,7.311979
862.0383,7.278889
863.9668,7.254291
865.8953,7.239507
867.8238,7.230814
869.7523,7.225871
871.6808,7.221364
873.6093,7.21698
875.5378,7.214067
877.4662,7.211967
879.3948,7.210689
881.3232,7.21126
883.2518,7.212864
885.1802,7.215287
887.1088,7.219194
889.0372,7.223745
890.9658,7.229462
892.8942,7.236927
894.8227,7.24621
896.7512,7.258
898.6797,7.271936
900.6082,7.287394
902.5367,7.305501
904.4652,7.326863
906.3937,7.34947
908.3222,7.373843
910.2507,7.402876
912.1792,7.436649
914.1077,7.472569
916.0362,7.507076
917.9647,7.537426
919.8932,7.565608
921.8217,7.593679
923.7502,7.621056
925.6786,7.648151
927.6072,7.675336
929.5356,7.701492
931.4642,7.726289
933.3926,7.749614
935.3212,7.770106
937.2496,7.788691
939.1782,7.804892
941.1066,7.8173
943.0352,7.82636
944.9636,7.832381
946.8922,7.835533
948.8206,7.837536
950.7491,7.839084
952.6776,7.839185
954.6061,7.838363
956.5346,7.836912
958.4631,7.834026
960.3916,7.832173
962.3201,7.833351
964.2486,7.83834
966.1771,7.848252
968.1056,7.862017
970.0341,7.875493
971.9626,7.887542
973.8911,7.899315
975.8196,7.913779
977.7481,7.929247
979.6766,7.941885
981.6051,7.951522
983.5336,7.959694
985.4621,7.966428
987.3906,7.971593
989.3191,7.976439
991.2476,7.980484
993.1761,7.983698
995.1046,7.987242
997.0331,7.99052
998.9615,7.992052
1000.89,7.990895
1002.819,7.985501
1004.747,7.974314
1006.676,7.958272
1008.604,7.937875
1010.533,7.913624
1012.461,7.888189
1014.39,7.862937
1016.318,7.838092
1018.247,7.815414
1020.175,7.795034
1022.104,7.776787
1024.032,7.760215
1025.961,7.744646
1027.889,7.728401
1029.818,7.71127
1031.746,7.692247
1033.675,7.670975
1035.603,7.648427
1037.531,7.623904
1039.46,7.596704
1041.389,7.567304
1043.317,7.535913
1045.245,7.50357
1047.174,7.471489
1049.103,7.438416
1051.031,7.404423
1052.959,7.370439
1054.888,7.335463
1056.817,7.299548
1058.745,7.263989
1060.673,7.227497
1062.602,7.19019
1064.531,7.153057
1066.459,7.114099
1068.387,7.073491
1070.316,7.032363
1072.245,6.987583
1074.173,6.940469
1076.101,6.896699
1078.03,6.854075
1079.958,6.810489
1081.887,6.775393
1083.815,6.742548
1085.744,6.698244
1087.672,6.642373
1089.601,6.578028
1091.529,6.507972
1093.458,6.435342
1095.386,6.362732
1097.315,6.294598
1099.243,6.23518
1101.172,6.186327
1103.1,6.150588
1105.029,6.13024
1106.957,6.124944
1108.886,6.134495
1110.814,6.158909
1112.743,6.196162
1114.671,6.245837
1116.6,6.308415
1118.528,6.38107
1120.457,6.460357
1122.385,6.543819
1124.314,6.628195
1126.242,6.71088
1128.171,6.788441
1130.099,6.856024
1132.028,6.912035
1133.956,6.957739
1135.885,6.993756
1137.813,7.020603
1139.742,7.038087
1141.67,7.050084
1143.599,7.065598
1145.527,7.081362
1147.456,7.090192
1149.384,7.09619
1151.313,7.114112
1153.241,7.144603
1155.17,7.172293
1157.098,7.192983
1159.027,7.208597
1160.955,7.221596
1162.884,7.233214
1164.812,7.243445
1166.741,7.254858
1168.669,7.266374
1170.598,7.275157
1172.526,7.281458
1174.455,7.285511
1176.383,7.280135
1178.312,7.254692
1180.24,7.232136
1182.169,7.268733
1184.097,7.32929
1186.026,7.360779
1187.954,7.376922
1189.883,7.388741
1191.811,7.399181
1193.74,7.406896
1195.668,7.41417
1197.597,7.421469
1199.525,7.428477
1201.454,7.434667
1203.382,7.440026
1205.311,7.443238
1207.239,7.446006
1209.168,7.447924
1211.096,7.448517
1213.025,7.448035
1214.953,7.448051
1216.882,7.447238
1218.81,7.445675
1220.739,7.443035
1222.667,7.43979
1224.596,7.436569
1226.524,7.43393
1228.453,7.431156
1230.381,7.429247
1232.31,7.42748
1234.238,7.42546
1236.167,7.422552
1238.095,7.419271
1240.024,7.414872
1241.952,7.41011
1243.881,7.403832
1245.809,7.396174
1247.738,7.387747
1249.666,7.378587
1251.595,7.366693
1253.523,7.351658
1255.452,7.331609
1257.38,7.307096
1259.309,7.281984
1261.237,7.261649
1263.166,7.249916
1265.094,7.248586
1267.023,7.253874
1268.951,7.260196
1270.88,7.262512
1272.808,7.260352
1274.737,7.253618
1276.665,7.245132
1278.594,7.234485
1280.522,7.22135
1282.451,7.207728
1284.379,7.193937
1286.308,7.178852
1288.236,7.164318
1290.165,7.150043
1292.093,7.135368
1294.022,7.121328
1295.95,7.108156
1297.879,7.094468
1299.807,7.081551
1301.736,7.069102
1303.664,7.05681
1305.593,7.045125
1307.521,7.034377
1309.45,7.023502
1311.378,7.012832
1313.307,7.001969
1315.235,6.991143
1317.164,6.97996
1319.092,6.969433
1321.021,6.958972
1322.949,6.948183
1324.878,6.937068
1326.806,6.925975
1328.735,6.914631
1330.663,6.902848
1332.592,6.890123
1334.52,6.877216
1336.449,6.863683
1338.377,6.849448
1340.306,6.835153
1342.234,6.821681
1344.163,6.805748
1346.091,6.788395
1348.02,6.770658
1349.948,6.75324
1351.877,6.735571
1353.805,6.718844
1355.734,6.702227
1357.662,6.685445
1359.591,6.667234
1361.519,6.648064
1363.448,6.630488
1365.376,6.614907
1367.305,6.597167
1369.233,6.579391
1371.161,6.561877
1373.09,6.542438
1375.019,6.524219
1376.947,6.508371
1378.875,6.490976
1380.804,6.472086
1382.733,6.451492
1384.661,6.434729
1386.589,6.420739
1388.518,6.411027
1390.447,6.400309
1392.375,6.383244
1394.303,6.364254
1396.232,6.350448
1398.161,6.335385
1400.089,6.321195
1402.017,6.308682
1403.946,6.293292
1405.875,6.278763
1407.803,6.265233
1409.731,6.249594
1411.66,6.233612
1413.589,6.217482
1415.517,6.199687
1417.445,6.176744
1419.374,6.156229
1421.302,6.145881
1423.231,6.131027
1425.159,6.112734
1427.088,6.093684
1429.016,6.072388
1430.945,6.052818
1432.873,6.032672
1434.802,6.006672
1436.73,5.980199
1438.659,5.965959
1440.587,5.949355
1442.516,5.929669
1444.444,5.909602
1446.373,5.889709
1448.301,5.871331
1450.23,5.856649
1452.158,5.841409
1454.087,5.823253
1456.015,5.796831
1457.944,5.786916
1459.872,5.789123
1461.801,5.783541
1463.729,5.771692
1465.658,5.763166
1467.586,5.758646
1469.515,5.750534
1471.443,5.736401
1473.372,5.727624
1475.3,5.725777
1477.229,5.721156
1479.157,5.714322
1481.086,5.704414
1483.014,5.694944
1484.943,5.683266
1486.871,5.669074
1488.8,5.654594
1490.728,5.643019
1492.657,5.634996
1494.585,5.618639
1496.514,5.600405
1498.442,5.5913
1500.371,5.581986
1502.299,5.56881
1504.228,5.544103
1506.156,5.516009
1508.085,5.508414
1510.013,5.5051
1511.942,5.492033
1513.87,5.477428
1515.799,5.459753
1517.727,5.443151
1519.656,5.422255
1521.584,5.402467
1523.513,5.394808
1525.441,5.381985
1527.37,5.369057
1529.298,5.356113
1531.227,5.339736
1533.155,5.320919
1535.084,5.308517
1537.012,5.288741
1538.941,5.259218
1540.869,5.244271
1542.798,5.238993
1544.726,5.229918
1546.655,5.219316
1548.583,5.20543
1550.512,5.190789
1552.44,5.173539
1554.369,5.15435
1556.297,5.13438
1558.226,5.105015
1560.154,5.093647
1562.083,5.097074
1564.011,5.087115
1565.94,5.072057
1567.868,5.054935
1569.797,5.037279
1571.725,5.026423
1573.654,5.010076
1575.582,4.984826
1577.511,4.974272
1579.439,4.968148
1581.368,4.953485
1583.296,4.938662
1585.225,4.923925
1587.153,4.908781
1589.082,4.893217
1591.01,4.878289
1592.939,4.86273
1594.867,4.84757
1596.796,4.833118
1598.724,4.817856
1600.653,4.802044
1602.581,4.786597
1604.51,4.770288
1606.438,4.753185
1608.367,4.73532
1610.295,4.717667
1612.224,4.701486
1614.152,4.681178
1616.081,4.652018
1618.009,4.632262
1619.938,4.621134
1621.866,4.610359
1623.795,4.604002
1625.723,4.598913
1627.652,4.588922
1629.58,4.578016
1631.509,4.566152
1633.437,4.547029
1635.366,4.527038
1637.294,4.519692
1639.223,4.512558
1641.151,4.500299
1643.08,4.485863
1645.008,4.46515
1646.937,4.449826
1648.865,4.441973
1650.794,4.420807
1652.722,4.392887
1654.651,4.391131
1656.579,4.391152
1658.508,4.380316
1660.436,4.365977
1662.365,4.350199
1664.293,4.339082
1666.222,4.327199
1668.15,4.309184
1670.079,4.295337
1672.007,4.28572
1673.936,4.270869
1675.864,4.257326
1677.793,4.249492
1679.721,4.236394
1681.65,4.21985
1683.578,4.195749
1685.507,4.185174
1687.435,4.183841
1689.364,4.173333
1691.292,4.161327
1693.221,4.146192
1695.149,4.1231
1697.078,4.110654
1699.006,4.096275
1700.935,4.082779
1702.863,4.079624
1704.792,4.067818
1706.72,4.055742
1708.649,4.04341
1710.577,4.030828
1712.505,4.015623
1714.434,3.997828
1716.363,3.977647
1718.291,3.964729
1720.219,3.958274
1722.148,3.947344
1724.077,3.933377
1726.005,3.919347
1727.933,3.904927
1729.862,3.889859
1731.791,3.871086
1733.719,3.852018
1735.647,3.846793
1737.576,3.842368
1739.505,3.832946
1741.433,3.827515
1743.361,3.821797
1745.29,3.815272
1747.219,3.806528
1749.147,3.79585
1751.075,3.785715
1753.004,3.77931
1754.932,3.770457
1756.861,3.75988
1758.789,3.7503
1760.718,3.738203
1762.646,3.727868
1764.575,3.719275
1766.503,3.706779
1768.432,3.69503
1770.36,3.68236
1772.289,3.668272
1774.217,3.661252
1776.146,3.653851
1778.074,3.643128
1780.003,3.631799
1781.931,3.621022
1783.86,3.609837
1785.788,3.599353
1787.717,3.588911
1789.645,3.576613
1791.574,3.563646
1793.502,3.553873
1795.431,3.545968
1797.359,3.535532
1799.288,3.523583
1801.216,3.51274
1803.145,3.503463
1805.073,3.493156
1807.002,3.482646
1808.93,3.472073
1810.859,3.461096
1812.787,3.450536
1814.716,3.440448
1816.644,3.4297
1818.573,3.419409
1820.501,3.40904
1822.43,3.39753
1824.358,3.3854
1826.287,3.375313
1828.215,3.364065
1830.144,3.352603
1832.072,3.343858
1834.001,3.333702
1835.929,3.322865
1837.858,3.312362
1839.786,3.301345
1841.715,3.289479
1843.643,3.276453
1845.572,3.266843
1847.5,3.257717
1849.429,3.247123
1851.357,3.236594
1853.286,3.22628
1855.214,3.215812
1857.143,3.204686
1859.071,3.194227
1861,3.183666
1862.928,3.172793
1864.857,3.162113
1866.785,3.150856
1868.714,3.139236
1870.642,3.129691
1872.571,3.120569
1874.499,3.110184
1876.428,3.099928
1878.356,3.089998
1880.285,3.079232
1882.213,3.069141
1884.142,3.059107
1886.07,3.048602
1887.999,3.038142
1889.927,3.027866
1891.856,3.018244
1893.784,3.00858
1895.713,2.998685
1897.641,2.988523
1899.57,2.978522
1901.498,2.968552
1903.427,2.958306
1905.355,2.948421
1907.284,2.938046
1909.212,2.927354
1911.141,2.917649
1913.069,2.907931
1914.998,2.897425
1916.926,2.886705
1918.855,2.876787
1920.783,2.867058
1922.712,2.856853
1924.64,2.846832
1926.569,2.836305
1928.497,2.826044
1930.426,2.815513
1932.354,2.804844
1934.283,2.794475
1936.211,2.784156
1938.14,2.773338
1940.068,2.762748
1941.997,2.751805
1943.925,2.741156
1945.854,2.731239
1947.782,2.72083
1949.711,2.710092
1951.639,2.699904
1953.568,2.689619
1955.496,2.679222
1957.425,2.668517
1959.353,2.658001
1961.282,2.647989
1963.21,2.638338
1965.139,2.628495
1967.067,2.617966
1968.996,2.608352
1970.924,2.598811
1972.853,2.588671
1974.781,2.578983
1976.71,2.569292
1978.638,2.559527
1980.567,2.550276
1982.495,2.541186
1984.424,2.532058
1986.352,2.523017
1988.281,2.514193
1990.209,2.505387
1992.138,2.4972
1994.066,2.489135
1995.995,2.480913
1997.923,2.473155
1999.852,2.465248
2001.78,2.457554
2003.709,2.450607
2005.637,2.443554
2007.566,2.436524
2009.494,2.429777
2011.423,2.422963
2013.351,2.41679
2015.28,2.410829
2017.208,2.404106
2019.137,2.397611
2021.065,2.391703
2022.994,2.385858
2024.922,2.380191
2026.851,2.374417
2028.779,2.368206
2030.708,2.362311
2032.636,2.356663
2034.565,2.35074
2036.493,2.345155
2038.422,2.339941
2040.35,2.333891
2042.279,2.32776
2044.207,2.322094
2046.135,2.316131
2048.064,2.31041
2049.992,2.305094
2051.921,2.299111
2053.85,2.293052
2055.778,2.28733
2057.707,2.28119
2059.635,2.275537
2061.563,2.269743
2063.492,2.263178
2065.42,2.25732
2067.349,2.251796
2069.278,2.245693
2071.206,2.239661
2073.135,2.233399
2075.063,2.226907
2076.991,2.221168
2078.92,2.215824
2080.848,2.20933
2082.777,2.202914
2084.706,2.196827
2086.634,2.190357
2088.563,2.184274
2090.491,2.178353
2092.419,2.172331
2094.348,2.166286
2096.276,2.160459
2098.205,2.153841
2100.134,2.147846
2102.062,2.141918
2103.99,2.135614
2105.919,2.129986
2107.847,2.124146
2109.776,2.117994
2111.704,2.112086
2113.633,2.106068
2115.562,2.09941
2117.49,2.093815
2119.418,2.087895
2121.347,2.081666
2123.275,2.075484
2125.204,2.069846
2127.132,2.063952
2129.061,2.058249
2130.99,2.052206
2132.918,2.045992
2134.846,2.040184
2136.775,2.034506
2138.703,2.028275
2140.632,2.022602
2142.56,2.017051
2144.489,2.011101
2146.417,2.005311
2148.346,1.999459
2150.274,1.993274
2152.203,1.987631
2154.131,1.981643
2156.06,1.975529
2157.988,1.969771
2159.917,1.964061
2161.845,1.958318
2163.774,1.952505
2165.702,1.946499
2167.631,1.940685
2169.559,1.935179
2171.488,1.929618
2173.416,1.923677
2175.345,1.917916
2177.273,1.911928
2179.202,1.906272
2181.13,1.900991
2183.059,1.895402
2184.987,1.889648
2186.916,1.884382
2188.844,1.878954
2190.773,1.873134
2192.701,1.867463
2194.63,1.861937
2196.558,1.85667
2198.487,1.851656
2200.415,1.846084
2202.344,1.840316
2204.272,1.835101
2206.201,1.829787
2208.129,1.824008
2210.058,1.818779
2211.986,1.813349
2213.915,1.807738
2215.843,1.802059
2217.772,1.796526
2219.7,1.791246
2221.629,1.786294
2223.557,1.780975
2225.486,1.775576
2227.414,1.770371
2229.343,1.764724
2231.271,1.75889
2233.2,1.75346
2235.128,1.747893
2237.057,1.742407
2238.985,1.737154
2240.914,1.731723
2242.842,1.726354
2244.771,1.721432
2246.699,1.716161
2248.628,1.710819
2250.556,1.705492
2252.485,1.700189
2254.413,1.694863
2256.342,1.689605
2258.27,1.684288
2260.199,1.679091
2262.127,1.673668
2264.056,1.66869
2265.984,1.663804
2267.913,1.658756
2269.841,1.653243
2271.77,1.647921
2273.698,1.643185
2275.627,1.638319
2277.555,1.63287
2279.484,1.627611
2281.412,1.622446
2283.341,1.617566
2285.269,1.612733
2287.198,1.607563
2289.126,1.602411
2291.055,1.59755
2292.983,1.592497
2294.912,1.587624
2296.84,1.582844
2298.769,1.577959
2300.697,1.572993
2302.626,1.567766
2304.554,1.562489
2306.483,1.557781
2308.411,1.55305
2310.34,1.547917
2312.268,1.543059
2314.197,1.538161
2316.125,1.532747
2318.054,1.528104
2319.982,1.523517
2321.911,1.518498
2323.839,1.513577
2325.768,1.508987
2327.696,1.503695
2329.625,1.498666
2331.553,1.494223
2333.482,1.489724
2335.41,1.485547
2337.339,1.481444
2339.267,1.476896
2341.196,1.473281
2343.124,1.469547
2345.053,1.465631
2346.981,1.462523
2348.91,1.458926
2350.838,1.453775
2352.767,1.448322
2354.695,1.443126
2356.624,1.438063
2358.552,1.433248
2360.481,1.428736
2362.409,1.424502
2364.338,1.420848
2366.266,1.417319
2368.195,1.414186
2370.123,1.411372
2372.052,1.408259
2373.98,1.405275
2375.908,1.402865
2377.837,1.399723
2379.766,1.396599
2381.694,1.393857
2383.623,1.39056
2385.551,1.387142
2387.479,1.383864
2389.408,1.38019
2391.336,1.376743
2393.265,1.373578
2395.194,1.370114
2397.122,1.36648
2399.051,1.362984
2400.979,1.358954
2402.907,1.354933
2404.836,1.35135
2406.764,1.34757
2408.693,1.343693
2410.622,1.339965
2412.55,1.336154
2414.479,1.332283
2416.407,1.328428
2418.335,1.324884
2420.264,1.321124
2422.192,1.31764
2424.121,1.313707
2426.05,1.30983
2427.978,1.306282
2429.906,1.302575
2431.835,1.298861
2433.763,1.295388
2435.692,1.291597
2437.62,1.287827
2439.549,1.284447
2441.478,1.280936
2443.406,1.277199
2445.334,1.27343
2447.263,1.269818
2449.191,1.266409
2451.12,1.262663
2453.048,1.258777
2454.977,1.255553
2456.906,1.252332
2458.834,1.248533
2460.762,1.244946
2462.691,1.241673
2464.619,1.238326
2466.548,1.234647
2468.476,1.231128
2470.405,1.227758
2472.333,1.224409
2474.262,1.220749
2476.19,1.217519
2478.119,1.214339
2480.047,1.210939
2481.976,1.20709
2483.904,1.203785
2485.833,1.200705
2487.761,1.197294
2489.69,1.193867
2491.618,1.190721
2493.547,1.187276
2495.475,1.183934
2497.404,1.180562
2499.332,1.177259
2501.261,1.17425
2503.189,1.171057
2505.118,1.167462
2507.046,1.164307
2508.975,1.161196
2510.903,1.157915
2512.832,1.154987
2514.76,1.15201
2516.689,1.148762
2518.617,1.145788
2520.546,1.1426
2522.474,1.139313
2524.403,1.136248
2526.331,1.133389
2528.26,1.1303
2530.188,1.127325
2532.117,1.124004
2534.045,1.120886
2535.974,1.118006
2537.902,1.115131
2539.831,1.112094
2541.759,1.109015
2543.688,1.105893
2545.616,1.102834
2547.545,1.099627
2549.473,1.096788
2551.402,1.094049
2553.33,1.091272
2555.259,1.088405
2557.187,1.085621
2559.116,1.082577
2561.044,1.079502
2562.973,1.076488
2564.901,1.073686
2566.83,1.070776
2568.758,1.067959
2570.687,1.064947
2572.615,1.06171
2574.544,1.058839
2576.472,1.056325
2578.401,1.053631
2580.329,1.051027
2582.258,1.048273
2584.186,1.04539
2586.115,1.042444
2588.043,1.039564
2589.972,1.036507
2591.9,1.033796
2593.829,1.031175
2595.757,1.028439
2597.686,1.025612
2599.614,1.023064
2601.543,1.020287
2603.471,1.017459
2605.4,1.014732
2607.328,1.011918
2609.257,1.009189
2611.185,1.00674
2613.114,1.003909
2615.042,1.001232
2616.971,0.998756
2618.899,0.9961436
2620.828,0.9934226
2622.756,0.9904864
2624.685,0.9877611
2626.613,0.9854534
2628.542,0.9825237
2630.47,0.9796292
2632.399,0.9772291
2634.327,0.974813
2636.256,0.9718972
2638.184,0.9693269
2640.113,0.9669489
2642.041,0.9643061
2643.97,0.9615564
2645.898,0.9590225
2647.827,0.9565614
2649.755,0.9541576
2651.684,0.9516256
2653.612,0.9490911
2655.541,0.9466903
2657.469,0.9441303
2659.398,0.9415202
2661.326,0.939183
2663.255,0.9366126
2665.183,0.9339005
2667.112,0.9313567
2669.04,0.9290113
2670.969,0.9265256
2672.897,0.9241711
2674.826,0.9216468
2676.754,0.91929
2678.683,0.9168778
2680.611,0.9145976
2682.54,0.9121425
2684.468,0.9094346
2686.397,0.9068007
2688.325,0.9046309
2690.254,0.9022955
2692.182,0.8999044
2694.111,0.8977327
2696.039,0.8955182
2697.968,0.8928917
2699.896,0.8906558
2701.825,0.8881383
2703.753,0.885729
2705.682,0.8835508
2707.61,0.8811961
2709.539,0.878872
2711.467,0.8768187
2713.396,0.8745774
2715.324,0.8721862
2717.253,0.8697234
2719.181,0.8673162
2721.11,0.8649608
2723.038,0.8627522
2724.967,0.8607761
2726.895,0.8584639
2728.823,0.8559462
2730.752,0.8540004
2732.681,0.8519399
2734.609,0.8496199
2736.538,0.8473558
2738.466,0.8452845
2740.395,0.8429175
2742.323,0.8408937
2744.251,0.8389769
2746.18,0.8369278
2748.109,0.8346937
2750.037,0.8325642
2751.966,0.8304713
2753.894,0.8283021
2755.823,0.8260934
2757.751,0.824186
2759.679,0.8222253
2761.608,0.8200653
2763.537,0.8178589
2765.465,0.8160864
2767.394,0.8139099
2769.322,0.8117862
2771.25,0.8097456
2773.179,0.807762
2775.107,0.8056474
2777.036,0.8035312
2778.965,0.8014188
2780.893,0.7996746
2782.822,0.797845
2784.75,0.7956212
2786.678,0.7934846
2788.607,0.7913654
2790.535,0.7890797
2792.464,0.7873837
2794.393,0.7856622
2796.321,0.783587
2798.25,0.7817693
2800.178,0.7799152
2802.106,0.7775749
2804.035,0.7758389
2805.963,0.7742038
2807.892,0.7719479
2809.821,0.7697668
2811.749,0.7680913
2813.677,0.7659019
2815.606,0.7638896
2817.534,0.76208
2819.463,0.759968
2821.391,0.758092
2823.32,0.7561692
2825.249,0.7539899
2827.177,0.7523025
2829.105,0.75026
2831.034,0.7479757
2832.962,0.7461846
2834.891,0.7444536
2836.819,0.7423298
2838.748,0.7402005
2840.677,0.7378979
2842.605,0.7359284
2844.533,0.7340398
2846.462,0.7314855
2848.39,0.7287484
2850.319,0.726666
2852.247,0.7247612
2854.176,0.7227939
2856.104,0.7207919
2858.033,0.7189209
2859.961,0.7171041
2861.89,0.7151723
2863.818,0.7132137
2865.747,0.711767
2867.675,0.7102134
2869.604,0.7083865
2871.532,0.7063223
2873.461,0.704534
2875.389,0.7026808
2877.318,0.7008697
2879.246,0.6995005
2881.175,0.6979156
2883.103,0.6960456
2885.032,0.6944583
2886.96,0.6926194
2888.889,0.6907369
2890.817,0.6890191
2892.746,0.6872182
2894.674,0.6852978
2896.603,0.6833709
2898.531,0.6814219
2900.46,0.6794419
2902.388,0.6775827
2904.317,0.6757075
2906.245,0.6735789
2908.174,0.6717685
2910.102,0.6699337
2912.031,0.6679375
2913.959,0.6659034
2915.888,0.6637038
2917.816,0.6616783
2919.745,0.6599442
2921.673,0.6577764
2923.602,0.65569
2925.53,0.6540749
2927.459,0.6525788
2929.387,0.6509479
2931.316,0.6494807
2933.244,0.6479948
2935.173,0.6466656
2937.101,0.6453971
2939.03,0.6440279
2940.958,0.6426265
2942.887,0.6416357
2944.815,0.6404194
2946.744,0.638874
2948.672,0.6370748
2950.601,0.6354188
2952.529,0.6334206
2954.458,0.6315756
2956.386,0.6297526
2958.315,0.6276956
2960.243,0.6258171
2962.172,0.6241546
2964.1,0.6226137
2966.029,0.6214448
2967.957,0.6206052
2969.886,0.6200833
2971.814,0.6194507
2973.743,0.6185458
2975.671,0.6176324
2977.6,0.6165243
2979.528,0.6153529
2981.457,0.6144274
2983.385,0.6131808
2985.314,0.6120791
2987.242,0.6109146
2989.171,0.6096867
2991.099,0.6082478
2993.028,0.6066466
2994.956,0.6053728
2996.885,0.6042206
2998.813,0.6027445
3000.742,0.6014289
3002.67,0.5998312
3004.599,0.5983449
3006.527,0.5969965
3008.456,0.5957905
3010.384,0.5945116
3012.313,0.5932035
3014.241,0.5919198
3016.17,0.5905828
3018.098,0.5892578
3020.027,0.5878932
3021.955,0.5863091
3023.884,0.5849358
3025.812,0.5836937
3027.741,0.5820755
3029.669,0.5805733
3031.598,0.5793427
3033.526,0.578049
3035.455,0.5765917
3037.383,0.575133
3039.312,0.5738515
3041.24,0.5723955
3043.169,0.5710007
3045.097,0.5697067
3047.026,0.5685107
3048.954,0.5672999
3050.883,0.5660235
3052.811,0.5643095
3054.74,0.5627326
3056.668,0.561259
3058.597,0.5599642
3060.525,0.5587722
3062.454,0.5573577
3064.382,0.5558582
3066.311,0.5547467
3068.239,0.5532839
3070.167,0.5518368
3072.096,0.5505673
3074.025,0.5493817
3075.953,0.5478755
3077.882,0.5465679
3079.81,0.5452606
3081.739,0.5441787
3083.667,0.5430357
3085.595,0.5415345
3087.524,0.540054
3089.453,0.5389923
3091.381,0.5376622
3093.31,0.5362355
3095.238,0.5348609
3097.167,0.533326
3099.095,0.5319358
3101.023,0.5309983
3102.952,0.5295041
3104.881,0.5281796
3106.809,0.5269819
3108.738,0.525542
3110.666,0.5243697
3112.594,0.5232385
3114.523,0.5219616
3116.451,0.5207501
3118.38,0.5193076
3120.309,0.5178423
3122.237,0.5166101
3124.166,0.5156849
3126.094,0.5144643
3128.022,0.5130669
3129.951,0.5115271
3131.879,0.5102884
3133.808,0.5092621
3135.737,0.5080108
3137.665,0.5067309
3139.594,0.5056543
3141.522,0.5042557
3143.45,0.502849
3145.379,0.5015068
3147.307,0.5005037
3149.236,0.4995721
3151.165,0.4987229
3153.093,0.497566
3155.021,0.4961671
3156.95,0.4949434
3158.878,0.4936879
3160.807,0.4922084
3162.735,0.4913081
3164.664,0.490248
3166.593,0.4887985
3168.521,0.4875445
3170.449,0.4867122
3172.378,0.4852772
3174.306,0.4838858
3176.235,0.482884
3178.163,0.4816853
3180.092,0.480449
3182.021,0.4794339
3183.949,0.4782078
3185.877,0.4770052
3187.806,0.4758981
3189.734,0.4747759
3191.663,0.4737364
3193.591,0.4727536
3195.52,0.4713797
3197.448,0.4701633
3199.377,0.4690536
3201.305,0.4680986
3203.234,0.4669491
3205.162,0.4656231
3207.091,0.4643435
3209.019,0.4632688
3210.948,0.4621642
3212.876,0.4610842
3214.805,0.4598884
3216.733,0.4590271
3218.662,0.4581332
3220.59,0.4571474
3222.519,0.455971
3224.447,0.4549913
3226.376,0.453974
3228.304,0.4528405
3230.233,0.4518448
3232.161,0.451008
3234.09,0.4499042
3236.018,0.4486123
3237.947,0.4475429
3239.875,0.4466049
3241.804,0.4454471
3243.732,0.4445247
3245.661,0.4436445
3247.589,0.4424255
3249.518,0.4412332
3251.446,0.4402821
3253.375,0.4391083
3255.303,0.4381442
3257.232,0.4370798
3259.16,0.436078
3261.089,0.4348945
3263.017,0.4339609
3264.946,0.433274
3266.874,0.4320626
3268.803,0.4308489
3270.731,0.4299586
3272.66,0.4289477
3274.588,0.4280666
3276.517,0.4270108
3278.445,0.425915
3280.374,0.4248658
3282.302,0.4238363
3284.231,0.4229224
3286.159,0.4220236
3288.088,0.4208753
3290.016,0.4199711
3291.945,0.4190174
3293.873,0.4181502
3295.802,0.4171314
3297.73,0.4160701
3299.659,0.4149996
3301.587,0.4140232
3303.516,0.4131423
3305.444,0.4122153
3307.373,0.41113
3309.301,0.4101671
3311.23,0.4094802
3313.158,0.408628
3315.087,0.4073786
3317.015,0.406298
3318.944,0.4053094
3320.872,0.4046357
3322.801,0.4038562
3324.729,0.4029401
3326.658,0.4020243
3328.586,0.4010536
3330.515,0.400044
3332.443,0.3992169
3334.372,0.3982814
3336.3,0.3974091
3338.229,0.3966216
3340.157,0.3959053
3342.086,0.395004
3344.014,0.3940728
3345.943,0.3931689
3347.871,0.3922204
3349.8,0.3911771
3351.728,0.3904317
3353.657,0.3896122
3355.585,0.3886499
3357.514,0.3877453
3359.442,0.3870591
3361.371,0.3861738
3363.299,0.3853243
3365.228,0.3843435
3367.156,0.3836183
3369.085,0.3828239
3371.013,0.3818037
3372.942,0.3810944
3374.87,0.3802449
3376.799,0.379309
3378.727,0.3786802
3380.656,0.377855
3382.584,0.3767456
3384.513,0.375932
3386.441,0.3753367
3388.37,0.3742491
3390.298,0.3732235
3392.227,0.3724695
3394.155,0.3716615
3396.083,0.3708416
3398.012,0.3702061
3399.941,0.3693975
3401.869,0.3683764
3403.798,0.3671404
3405.726,0.3662865
3407.655,0.3655538
3409.583,0.3648509
3411.511,0.3636886
3413.44,0.362382
3415.369,0.3614229
3417.297,0.3608519
3419.226,0.3600016
3421.154,0.3590852
3423.083,0.357918
3425.011,0.3569101
3426.939,0.3559569
3428.868,0.3549161
3430.797,0.3537692
3432.725,0.3525894
3434.654,0.3515208
3436.582,0.3508325
3438.51,0.34991
3440.439,0.3490036
3442.367,0.3482637
3444.296,0.3476382
3446.225,0.346963
3448.153,0.3462402
3450.082,0.3454514
3452.01,0.3448242
3453.938,0.3441237
3455.867,0.3433024
3457.795,0.3422682
3459.724,0.3414212
3461.653,0.3409762
3463.581,0.3404736
3465.51,0.340018
3467.438,0.3395471
3469.366,0.338495
3471.295,0.3376187
3473.223,0.337282
3475.152,0.3369813
3477.081,0.3362702
3479.009,0.3355747
3480.938,0.3349866
3482.866,0.3346348
3484.794,0.334213
3486.723,0.3336561
3488.651,0.3330931
3490.58,0.3325774
3492.509,0.332076
3494.437,0.3317391
3496.365,0.3314492
3498.294,0.331164
3500.222,0.3306805
3502.151,0.3301559
3504.079,0.3297762
3506.008,0.3295432
3507.937,0.3292739
3509.865,0.3289353
3511.793,0.3284215
3513.722,0.3278156
3515.65,0.3273059
3517.579,0.3270418
3519.507,0.3267702
3521.436,0.3261538
3523.365,0.3254777
3525.293,0.3251743
3527.221,0.3246965
3529.15,0.3242748
3531.078,0.3237832
3533.007,0.3233385
3534.935,0.3226089
3536.864,0.322093
3538.792,0.3217723
3540.721,0.3213577
3542.649,0.320738
3544.578,0.3200954
3546.506,0.3193869
3548.435,0.3190197
3550.363,0.3185601
3552.292,0.3179688
3554.22,0.3172325
3556.149,0.3164996
3558.077,0.3161495
3560.006,0.3158273
3561.934,0.3153113
3563.863,0.314451
3565.791,0.313543
3567.72,0.313108
3569.648,0.3126516
3571.577,0.3121347
3573.505,0.3117215
3575.434,0.3111534
3577.362,0.3104122
3579.291,0.3099433
3581.219,0.3094115
3583.148,0.3087573
3585.076,0.3080857
3587.005,0.3074787
3588.933,0.3069323
3590.862,0.3067238
3592.79,0.3062523
3594.719,0.3056827
3596.647,0.304959
3598.576,0.3042422
3600.504,0.3035304
3602.433,0.3031944
3604.361,0.3028333
3606.29,0.3022845
3608.218,0.3014421
3610.147,0.3008582
3612.075,0.3005166
3614.004,0.3001817
3615.932,0.2994777
3617.861,0.2986892
3619.789,0.2980438
3621.718,0.2976512
3623.646,0.2971025
3625.575,0.2964491
3627.503,0.295413
3629.432,0.2946594
3631.36,0.294469
3633.289,0.2942691
3635.217,0.2936239
3637.146,0.2929312
3639.074,0.292295
3641.003,0.2917747
3642.931,0.2913177
3644.86,0.2903855
3646.788,0.288986
3648.717,0.2879164
3650.645,0.2878855
3652.574,0.2883183
3654.502,0.2876428
3656.431,0.2869348
3658.359,0.2865702
3660.288,0.2860106
3662.216,0.2854441
3664.145,0.2849952
3666.073,0.2843345
3668.002,0.2835667
3669.93,0.2824183
3671.859,0.2819333
3673.787,0.2813807
3675.716,0.2806923
3677.644,0.2805752
3679.573,0.2804091
3681.501,0.2799312
3683.43,0.27931
3685.358,0.2784667
3687.287,0.2778886
3689.215,0.2775513
3691.144,0.277199
3693.072,0.2768492
3695.001,0.2764296
3696.929,0.2758567
3698.858,0.2752337
3700.786,0.274681
3702.715,0.2744907
3704.643,0.2740481
3706.572,0.2735406
3708.5,0.2730814
3710.429,0.2724472
3712.357,0.2717829
3714.286,0.2714635
3716.214,0.2709757
3718.143,0.2705542
3720.071,0.269928
3722,0.2693085
3723.928,0.2686114
3725.857,0.2678536
3727.785,0.2669352
3729.714,0.2661192
3731.642,0.2651393
3733.571,0.2645422
3735.499,0.2636327
3737.427,0.2633041
3739.356,0.263699
3741.285,0.2637045
3743.213,0.2630717
3745.142,0.2634215
3747.07,0.2641544
3748.999,0.2638287
3750.927,0.2636418
3752.855,0.2636006
3754.784,0.2635663
3756.713,0.263451
3758.641,0.2632596
3760.57,0.2629289
3762.498,0.26242
3764.427,0.261849
3766.355,0.261592
3768.283,0.2613481
3770.212,0.261093
3772.141,0.2607883
3774.069,0.2601908
3775.998,0.2596439
3777.926,0.2591935
3779.854,0.2589081
3781.783,0.2583562
3783.711,0.257811
3785.64,0.2573502
3787.569,0.2570872
3789.497,0.2566713
3791.426,0.2560789
3793.354,0.2556366
3795.282,0.2551382
3797.211,0.2544258
3799.139,0.2537477
3801.068,0.2530485
3802.997,0.2530382
3804.925,0.2528065
3806.854,0.2523938
3808.782,0.2523004
3810.71,0.2518673
3812.639,0.2512494
3814.567,0.2503563
3816.496,0.2497139
3818.425,0.2493783
3820.353,0.2487048
3822.281,0.248458
3824.21,0.2485674
3826.138,0.2484005
3828.067,0.2477961
3829.995,0.2471125
3831.924,0.2464068
3833.853,0.2460132
3835.781,0.2452568
3837.709,0.2446019
3839.638,0.2443457
3841.566,0.2440205
3843.495,0.2436828
3845.423,0.243475
3847.352,0.2431624
3849.281,0.2426392
3851.209,0.241672
3853.137,0.2406812
3855.066,0.2406811
3856.994,0.2408695
3858.923,0.2404349
3860.851,0.2399623
3862.78,0.2396623
3864.708,0.238994
3866.637,0.2383022
3868.565,0.2377643
3870.494,0.2374485
3872.422,0.2375305
3874.351,0.2373393
3876.279,0.2369576
3878.208,0.2363262
3880.136,0.2358136
3882.065,0.2354312
3883.993,0.2350219
3885.922,0.234623
3887.85,0.234239
3889.779,0.233484
3891.707,0.2331036
3893.636,0.2326975
3895.564,0.2321358
3897.493,0.2316745
3899.421,0.2314662
3901.35,0.2309986
3903.278,0.230729
3905.207,0.2305905
3907.135,0.2303884
3909.064,0.2298578
3910.992,0.2294826
3912.921,0.2289184
3914.849,0.2285168
3916.778,0.2281847
3918.706,0.2277529
3920.635,0.2275882
3922.563,0.2274003
3924.492,0.2268741
3926.42,0.226311
3928.349,0.2258224
3930.277,0.2254194
3932.206,0.2249647
3934.134,0.2247096
3936.063,0.2244589
3937.991,0.2242291
3939.92,0.2237561
3941.848,0.2231007
3943.777,0.2227214
3945.705,0.2223125
3947.634,0.2219115
3949.562,0.2217323
3951.491,0.2214404
3953.419,0.2209564
3955.348,0.220414
3957.276,0.2200557
3959.205,0.2196055
3961.133,0.2191674
3963.062,0.2189423
3964.99,0.2187983
3966.919,0.2182732
3968.847,0.2180283
3970.776,0.2177509
3972.704,0.2173868
3974.633,0.2169156
3976.561,0.2166288
3978.49,0.216332
3980.418,0.2157359
3982.347,0.2153501
3984.275,0.2150432
3986.204,0.2146441
3988.132,0.2142732
3990.061,0.2137885
3991.989,0.2134715
3993.918,0.2131895
3995.846,0.2128011
3997.775,0.2124847
3999.703,0.2122069
