399.1989,1.260236
401.1274,1.343531
403.0559,1.430491
404.9844,1.518184
406.9129,1.602674
408.8414,1.693228
410.7699,1.784546
412.6984,1.876312
414.6269,1.968412
416.5554,2.057454
418.4839,2.141143
420.4124,2.228639
422.3409,2.313263
424.2694,2.393913
426.1979,2.473435
428.1264,2.552906
430.0549,2.627628
431.9834,2.700442
433.9119,2.773798
435.8404,2.840501
437.7689,2.903163
439.6974,2.967227
441.6259,3.027087
443.5544,3.082936
445.4829,3.137106
447.4114,3.183857
449.3399,3.225192
451.2684,3.26303
453.1969,3.296434
455.1254,3.330981
457.0539,3.361523
458.9824,3.386775
460.9109,3.415696
462.8394,3.44576
464.7679,3.472344
466.6964,3.501879
468.6248,3.537114
470.5533,3.572174
472.4818,3.61017
474.4103,3.652256
476.3388,3.698181
478.2673,3.748685
480.1958,3.802386
482.1243,3.85651
484.0528,3.90788
485.9813,3.962073
487.9098,4.022978
489.8383,4.085497
491.7668,4.148411
493.6953,4.20982
495.6238,4.267812
497.5523,4.323099
499.4808,4.374374
501.4093,4.419013
503.3378,4.457263
505.2663,4.48491
507.1948,4.502111
509.1233,4.509082
511.0518,4.501772
512.9803,4.492689
514.9088,4.531752
516.8373,4.622286
518.7657,4.711051
520.6943,4.771858
522.6227,4.817871
524.5513,4.859381
526.4797,4.901216
528.4083,4.945185
530.3367,4.987449
532.2653,5.029762
534.1937,5.070308
536.1223,5.106349
538.0507,5.140735
539.9792,5.171801
541.9077,5.198348
543.8362,5.226053
545.7647,5.258265
547.6932,5.288816
549.6217,5.317272
551.5502,5.347466
553.4787,5.379043
555.4072,5.409432
557.3357,5.440332
559.2642,5.471814
561.1927,5.506356
563.1212,5.542923
565.0497,5.582012
566.9782,5.630997
568.9067,5.709724
570.8352,5.810134
572.7637,5.899863
574.6922,5.973473
576.6207,6.036486
578.5492,6.09013
580.4777,6.134768
582.4062,6.170595
584.3347,6.195759
586.2632,6.207602
588.1917,6.205608
590.1202,6.184542
592.0486,6.140134
593.9772,6.071293
595.9056,5.978841
597.8342,5.853234
599.7626,5.674351
601.6912,5.456697
603.6196,5.29456
605.5482,5.180064
607.4766,5.064718
609.4052,4.977058
611.3336,5.005592
613.2621,5.134723
615.1906,5.231808
617.1191,5.284292
619.0476,5.331603
620.9761,5.410259
622.9046,5.647522
624.8331,6.121599
626.7616,6.726976
628.6901,7.330623
630.6186,7.769807
632.5471,7.996321
634.4756,8.099886
636.4041,8.16556
638.3326,8.221311
640.2611,8.276542
642.1896,8.331218
644.1181,8.388233
646.0466,8.436644
647.9751,8.481646
649.9036,8.531534
651.8321,8.576795
653.7606,8.616086
655.6891,8.652392
657.6176,8.686209
659.5461,8.720008
661.4745,8.753473
663.4031,8.788673
665.3315,8.81894
667.2601,8.841103
669.1885,8.875712
671.1171,8.915703
673.0455,8.947556
674.9741,8.98152
676.9025,9.015505
678.8311,9.047192
680.7595,9.074987
682.688,9.101065
684.6165,9.12599
686.545,9.150246
688.4735,9.175402
690.402,9.207541
692.3305,9.243738
694.259,9.28526
696.1875,9.331542
698.116,9.378294
700.0445,9.411938
701.973,9.429037
703.9015,9.431258
705.83,9.423133
707.7585,9.402778
709.687,9.367489
711.6155,9.308024
713.544,9.22143
715.4725,9.126089
717.401,9.048999
719.3295,8.990106
721.258,8.938053
723.1865,8.888803
725.115,8.842417
727.0435,8.798112
728.972,8.756208
730.9005,8.714527
732.829,8.674542
734.7574,8.637488
736.686,8.607239
738.6144,8.595108
740.543,8.62481
742.4714,8.692304
744.4,8.76431
746.3284,8.822245
748.257,8.868594
750.1854,8.90735
752.114,8.941429
754.0424,8.97316
755.9709,9.003865
757.8994,9.031763
759.8279,9.059081
761.7564,9.08392
763.6849,9.105372
765.6134,9.124065
767.5419,9.140117
769.4704,9.154454
771.3989,9.168457
773.3274,9.181869
775.2559,9.194095
777.1844,9.204824
779.1129,9.213703
781.0414,9.219483
782.9699,9.223286
784.8984,9.224538
786.8269,9.223432
788.7554,9.221049
790.6839,9.220438
792.6124,9.224198
794.5409,9.239111
796.4694,9.273533
798.3979,9.32611
800.3264,9.355263
802.2549,9.343972
804.1833,9.315942
806.1119,9.287915
808.0403,9.267398
809.9689,9.254797
811.8973,9.245066
813.8259,9.234732
815.7543,9.227277
817.6829,9.232065
819.6113,9.250209
821.5399,9.279005
823.4683,9.318353
825.3969,9.366633
827.3253,9.421299
829.2538,9.482321
831.1823,9.541319
833.1108,9.589132
835.0393,9.623192
836.9678,9.645089
838.8963,9.654758
840.8248,9.655636
842.7533,9.648247
844.6818,9.637188
846.6103,9.630469
848.5388,9.626161
850.4673,9.619396
852.3958,9.609735
854.3243,9.594958
856.2528,9.574267
858.1813,9.548312
860.1098,9.516126
862.0383,9.481709
863.9668,9.458611
865.8953,9.449567
867.8238,9.4485
869.7523,9.451565
871.6808,9.455489
873.6093,9.458647
875.5378,9.463572
877.4662,9.468841
879.3948,9.476223
881.3232,9.486483
883.2518,9.497317
885.1802,9.508752
887.1088,9.521908
889.0372,9.535514
890.9658,9.550611
892.8942,9.56875
894.8227,9.589891
896.7512,9.614117
898.6797,9.641725
900.6082,9.671298
902.5367,9.703468
904.4652,9.739001
906.3937,9.777221
908.3222,9.819429
910.2507,9.868849
912.1792,9.924152
914.1077,9.981753
916.0362,10.03735
917.9647,10.08789
919.8932,10.13479
921.8217,10.18169
923.7502,10.2285
925.6786,10.2772
927.6072,10.32551
929.5356,10.37087
931.4642,10.41466
933.3926,10.45638
935.3212,10.49387
937.2496,10.52885
939.1782,10.56089
941.1066,10.5897
943.0352,10.61354
944.9636,10.63259
946.8922,10.64756
948.8206,10.66028
950.7491,10.67273
952.6776,10.68448
954.6061,10.69413
956.5346,10.70265
958.4631,10.70989
960.3916,10.71895
962.3201,10.7315
964.2486,10.74927
966.1771,10.7733
968.1056,10.80223
970.0341,10.83135
971.9626,10.85937
973.8911,10.88724
975.8196,10.91905
977.7481,10.95234
979.6766,10.98138
981.6051,11.00538
983.5336,11.02723
985.4621,11.04731
987.3906,11.06661
989.3191,11.08693
991.2476,11.10561
993.1761,11.12204
995.1046,11.1394
997.0331,11.15556
998.9615,11.16889
1000.89,11.1784
1002.819,11.18291
1004.747,11.18075
1006.676,11.17172
1008.604,11.15521
1010.533,11.13275
1012.461,11.10795
1014.39,11.08387
1016.318,11.062
1018.247,11.04409
1020.175,11.0297
1022.104,11.01829
1024.032,11.00885
1025.961,10.99893
1027.889,10.98792
1029.818,10.97644
1031.746,10.96287
1033.675,10.94765
1035.603,10.92996
1037.531,10.90804
1039.46,10.88258
1041.389,10.85394
1043.317,10.8211
1045.245,10.78697
1047.174,10.75271
1049.103,10.71783
1051.031,10.68168
1052.959,10.64515
1054.888,10.60651
1056.817,10.56585
1058.745,10.52346
1060.673,10.4801
1062.602,10.43712
1064.531,10.39345
1066.459,10.34696
1068.387,10.29809
1070.316,10.24562
1072.245,10.18599
1074.173,10.12134
1076.101,10.06008
1078.03,9.999138
1079.958,9.936501
1081.887,9.884251
1083.815,9.832235
1085.744,9.761415
1087.672,9.671343
1089.601,9.566617
1091.529,9.452454
1093.458,9.333064
1095.386,9.214385
1097.315,9.1042
1099.243,9.007782
1101.172,8.929229
1103.1,8.874577
1105.029,8.846497
1106.957,8.844458
1108.886,8.868415
1110.814,8.918097
1112.743,8.991672
1114.671,9.089421
1116.6,9.20905
1118.528,9.34608
1120.457,9.49681
1122.385,9.655433
1124.314,9.816804
1126.242,9.977118
1128.171,10.12766
1130.099,10.26108
1132.028,10.37458
1133.956,10.46771
1135.885,10.54238
1137.813,10.6015
1139.742,10.6438
1141.67,10.67697
1143.599,10.71532
1145.527,10.75282
1147.456,10.77986
1149.384,10.80263
1151.313,10.84149
1153.241,10.90022
1155.17,10.95583
1157.098,10.99942
1159.027,11.03659
1160.955,11.07089
1162.884,11.10099
1164.812,11.12914
1166.741,11.16023
1168.669,11.18985
1170.598,11.21598
1172.526,11.23999
1174.455,11.25922
1176.383,11.26389
1178.312,11.23723
1180.24,11.2124
1182.169,11.28228
1184.097,11.3911
1186.026,11.45287
1187.954,11.49129
1189.883,11.52327
1191.811,11.55163
1193.74,11.57688
1195.668,11.60265
1197.597,11.62615
1199.525,11.65046
1201.454,11.67354
1203.382,11.69462
1205.311,11.71384
1207.239,11.73212
1209.168,11.7466
1211.096,11.76131
1213.025,11.77536
1214.953,11.7875
1216.882,11.79885
1218.81,11.81009
1220.739,11.81871
1222.667,11.82729
1224.596,11.83536
1226.524,11.84335
1228.453,11.85311
1230.381,11.86482
1232.31,11.87503
1234.238,11.88569
1236.167,11.89549
1238.095,11.90386
1240.024,11.91058
1241.952,11.91569
1243.881,11.91799
1245.809,11.91986
1247.738,11.92029
1249.666,11.91828
1251.595,11.91282
1253.523,11.90262
1255.452,11.8827
1257.38,11.85686
1259.309,11.8296
1261.237,11.8091
1263.166,11.80394
1265.094,11.81537
1267.023,11.83647
1268.951,11.86161
1270.88,11.87955
1272.808,11.88814
1274.737,11.89192
1276.665,11.8925
1278.594,11.88785
1280.522,11.88063
1282.451,11.87159
1284.379,11.8615
1286.308,11.8509
1288.236,11.84083
1290.165,11.83055
1292.093,11.82181
1294.022,11.81231
1295.95,11.80264
1297.879,11.7936
1299.807,11.78594
1301.736,11.77803
1303.664,11.77166
1305.593,11.766
1307.521,11.76152
1309.45,11.75731
1311.378,11.75339
1313.307,11.74839
1315.235,11.74436
1317.164,11.73934
1319.092,11.73447
1321.021,11.73022
1322.949,11.72585
1324.878,11.72068
1326.806,11.71638
1328.735,11.71068
1330.663,11.70382
1332.592,11.69611
1334.52,11.68838
1336.449,11.67852
1338.377,11.66801
1340.306,11.65751
1342.234,11.64792
1344.163,11.63469
1346.091,11.61876
1348.02,11.60168
1349.948,11.58566
1351.877,11.56934
1353.805,11.5537
1355.734,11.53791
1357.662,11.52201
1359.591,11.5035
1361.519,11.48426
1363.448,11.46768
1365.376,11.45436
1367.305,11.4375
1369.233,11.42057
1371.161,11.40246
1373.09,11.3816
1375.019,11.36292
1376.947,11.34805
1378.875,11.3313
1380.804,11.31276
1382.733,11.28976
1384.661,11.27321
1386.589,11.26209
1388.518,11.25748
1390.447,11.25237
1392.375,11.23693
1394.303,11.21597
1396.232,11.20444
1398.161,11.19079
1400.089,11.17892
1402.017,11.17001
1403.946,11.15512
1405.875,11.14157
1407.803,11.13134
1409.731,11.11699
1411.66,11.10131
1413.589,11.08579
1415.517,11.06766
1417.445,11.03919
1419.374,11.01438
1421.302,11.00814
1423.231,10.99458
1425.159,10.97558
1427.088,10.95532
1429.016,10.92897
1430.945,10.90641
1432.873,10.88323
1434.802,10.84807
1436.73,10.81279
1438.659,10.80019
1440.587,10.78205
1442.516,10.75942
1444.444,10.7365
1446.373,10.71254
1448.301,10.692
1450.23,10.67858
1452.158,10.66247
1454.087,10.64221
1456.015,10.60569
1457.944,10.59898
1459.872,10.6166
1461.801,10.61942
1463.729,10.60802
1465.658,10.60506
1467.586,10.61008
1469.515,10.60686
1471.443,10.59308
1473.372,10.58937
1475.3,10.59791
1477.229,10.60217
1479.157,10.60176
1481.086,10.59511
1483.014,10.58988
1484.943,10.58009
1486.871,10.56534
1488.8,10.55162
1490.728,10.5422
1492.657,10.539
1494.585,10.52162
1496.514,10.4993
1498.442,10.49276
1500.371,10.48832
1502.299,10.47588
1504.228,10.44046
1506.156,10.3998
1508.085,10.39792
1510.013,10.40381
1511.942,10.39239
1513.87,10.37687
1515.799,10.35472
1517.727,10.33498
1519.656,10.30733
1521.584,10.28199
1523.513,10.28025
1525.441,10.26721
1527.37,10.25471
1529.298,10.24297
1531.227,10.22311
1533.155,10.1978
1535.084,10.1867
1537.012,10.15999
1538.941,10.11311
1540.869,10.09647
1542.798,10.09826
1544.726,10.09321
1546.655,10.08636
1548.583,10.07045
1550.512,10.05238
1552.44,10.03131
1554.369,10.00566
1556.297,9.977481
1558.226,9.931356
1560.154,9.920745
1562.083,9.93998
1564.011,9.932955
1565.94,9.914927
1567.868,9.892796
1569.797,9.869955
1571.725,9.859506
1573.654,9.838698
1575.582,9.800245
1577.511,9.790256
1579.439,9.790198
1581.368,9.773725
1583.296,9.754848
1585.225,9.736631
1587.153,9.7177
1589.082,9.697445
1591.01,9.679706
1592.939,9.660525
1594.867,9.640785
1596.796,9.623434
1598.724,9.604231
1600.653,9.582999
1602.581,9.563548
1604.51,9.542038
1606.438,9.517363
1608.367,9.49258
1610.295,9.468961
1612.224,9.446698
1614.152,9.4166
1616.081,9.368536
1618.009,9.339118
1619.938,9.328185
1621.866,9.317029
1623.795,9.314489
1625.723,9.314934
1627.652,9.304638
1629.58,9.292332
1631.509,9.279678
1633.437,9.250963
1635.366,9.219469
1637.294,9.215424
1639.223,9.211432
1641.151,9.196483
1643.08,9.178456
1645.008,9.146323
1646.937,9.124752
1648.865,9.120073
1650.794,9.085955
1652.722,9.036237
1654.651,9.044009
1656.579,9.055832
1658.508,9.043795
1660.436,9.024302
1662.365,9.001249
1664.293,8.987947
1666.222,8.973989
1668.15,8.946952
1670.079,8.92785
1672.007,8.917993
1673.936,8.89658
1675.864,8.878459
1677.793,8.872817
1679.721,8.855378
1681.65,8.830399
1683.578,8.788927
1685.507,8.776591
1687.435,8.78448
1689.364,8.773293
1691.292,8.757096
1693.221,8.734006
1695.149,8.694214
1697.078,8.678296
1699.006,8.657825
1700.935,8.638332
1702.863,8.640461
1704.792,8.623678
1706.72,8.607254
1708.649,8.590897
1710.577,8.57434
1712.505,8.551349
1714.434,8.522157
1716.363,8.487917
1718.291,8.469333
1720.219,8.466022
1722.148,8.452529
1724.077,8.432295
1726.005,8.411708
1727.933,8.390373
1729.862,8.367069
1731.791,8.335666
1733.719,8.304055
1735.647,8.303289
1737.576,8.303774
1739.505,8.292645
1741.433,8.289773
1743.361,8.286405
1745.29,8.281803
1747.219,8.271864
1749.147,8.257595
1751.075,8.244277
1753.004,8.239537
1754.932,8.229684
1756.861,8.215316
1758.789,8.202841
1760.718,8.184612
1762.646,8.17109
1764.575,8.160774
1766.503,8.142489
1768.432,8.125285
1770.36,8.106417
1772.289,8.084545
1774.217,8.078014
1776.146,8.06946
1778.074,8.054824
1780.003,8.039107
1781.931,8.023752
1783.86,8.007437
1785.788,7.993028
1787.717,7.97896
1789.645,7.960788
1791.574,7.939417
1793.502,7.925469
1795.431,7.916814
1797.359,7.902418
1799.288,7.884554
1801.216,7.868691
1803.145,7.856352
1805.073,7.841765
1807.002,7.826684
1808.93,7.810564
1810.859,7.79355
1812.787,7.779079
1814.716,7.765011
1816.644,7.748326
1818.573,7.733041
1820.501,7.717508
1822.43,7.700239
1824.358,7.682042
1826.287,7.666539
1828.215,7.648654
1830.144,7.631572
1832.072,7.619165
1834.001,7.603874
1835.929,7.58738
1837.858,7.57074
1839.786,7.553822
1841.715,7.534873
1843.643,7.511948
1845.572,7.497337
1847.5,7.486388
1849.429,7.470713
1851.357,7.45391
1853.286,7.437841
1855.214,7.421102
1857.143,7.403442
1859.071,7.387329
1861,7.370035
1862.928,7.352897
1864.857,7.336839
1866.785,7.317707
1868.714,7.298028
1870.642,7.284932
1872.571,7.270659
1874.499,7.254346
1876.428,7.239151
1878.356,7.222329
1880.285,7.205497
1882.213,7.190571
1884.142,7.174126
1886.07,7.157928
1887.999,7.141828
1889.927,7.125186
1891.856,7.110601
1893.784,7.096159
1895.713,7.079825
1897.641,7.064552
1899.57,7.050322
1901.498,7.034315
1903.427,7.018673
1905.355,7.004358
1907.284,6.988587
1909.212,6.973131
1911.141,6.958905
1913.069,6.943185
1914.998,6.928095
1916.926,6.911815
1918.855,6.895604
1920.783,6.882259
1922.712,6.867878
1924.64,6.853325
1926.569,6.839203
1928.497,6.824783
1930.426,6.808528
1932.354,6.794269
1934.283,6.780299
1936.211,6.764674
1938.14,6.749588
1940.068,6.734962
1941.997,6.7185
1943.925,6.704954
1945.854,6.690916
1947.782,6.675417
1949.711,6.661309
1951.639,6.647072
1953.568,6.63076
1955.496,6.616161
1957.425,6.600621
1959.353,6.584747
1961.282,6.571937
1963.21,6.557981
1965.139,6.541963
1967.067,6.527711
1968.996,6.513878
1970.924,6.499118
1972.853,6.484995
1974.781,6.470371
1976.71,6.45497
1978.638,6.441308
1980.567,6.426484
1982.495,6.411244
1984.424,6.397679
1986.352,6.382913
1988.281,6.36739
1990.209,6.353676
1992.138,6.338842
1994.066,6.324333
1995.995,6.310541
1997.923,6.29572
1999.852,6.281092
2001.78,6.268225
2003.709,6.253381
2005.637,6.238415
2007.566,6.224756
2009.494,6.210238
2011.423,6.195535
2013.351,6.182282
2015.28,6.167252
2017.208,6.15294
2019.137,6.140314
2021.065,6.125906
2022.994,6.111516
2024.922,6.098564
2026.851,6.083863
2028.779,6.069876
2030.708,6.057463
2032.636,6.04349
2034.565,6.029763
2036.493,6.017365
2038.422,6.002887
2040.35,5.989256
2042.279,5.97681
2044.207,5.96283
2046.135,5.949391
2048.064,5.936819
2049.992,5.922772
2051.921,5.910362
2053.85,5.897861
2055.778,5.883658
2057.707,5.870964
2059.635,5.858803
2061.563,5.844967
2063.492,5.832345
2065.42,5.819798
2067.349,5.8066
2069.278,5.794558
2071.206,5.782195
2073.135,5.768207
2075.063,5.756289
2076.991,5.744071
2078.92,5.730995
2080.848,5.718684
2082.777,5.70627
2084.706,5.692954
2086.634,5.681641
2088.563,5.669503
2090.491,5.655545
2092.419,5.643968
2094.348,5.631992
2096.276,5.619478
2098.205,5.607688
2100.134,5.595015
2102.062,5.581867
2103.99,5.570559
2105.919,5.558685
2107.847,5.545532
2109.776,5.534496
2111.704,5.521999
2113.633,5.509644
2115.562,5.497672
2117.49,5.485696
2119.418,5.47292
2121.347,5.462427
2123.275,5.45027
2125.204,5.438241
2127.132,5.426535
2129.061,5.414682
2130.99,5.402671
2132.918,5.391767
2134.846,5.379115
2136.775,5.367637
2138.703,5.356971
2140.632,5.344612
2142.56,5.332534
2144.489,5.321492
2146.417,5.309011
2148.346,5.297573
2150.274,5.286144
2152.203,5.273589
2154.131,5.261844
2156.06,5.251305
2157.988,5.238811
2159.917,5.22716
2161.845,5.215829
2163.774,5.203818
2165.702,5.192389
2167.631,5.18121
2169.559,5.168756
2171.488,5.157698
2173.416,5.146724
2175.345,5.135057
2177.273,5.123555
2179.202,5.112664
2181.13,5.100714
2183.059,5.089931
2184.987,5.078937
2186.916,5.067116
2188.844,5.056128
2190.773,5.045668
2192.701,5.034039
2194.63,5.023617
2196.558,5.012947
2198.487,5.001349
2200.415,4.990521
2202.344,4.979602
2204.272,4.967762
2206.201,4.957519
2208.129,4.946788
2210.058,4.935228
2211.986,4.924312
2213.915,4.913337
2215.843,4.901683
2217.772,4.891381
2219.7,4.880175
2221.629,4.868571
2223.557,4.857916
2225.486,4.847123
2227.414,4.835192
2229.343,4.824419
2231.271,4.813214
2233.2,4.801852
2235.128,4.790957
2237.057,4.779642
2238.985,4.767873
2240.914,4.757352
2242.842,4.745964
2244.771,4.734312
2246.699,4.723666
2248.628,4.712795
2250.556,4.701268
2252.485,4.690636
2254.413,4.678887
2256.342,4.667676
2258.27,4.657395
2260.199,4.645864
2262.127,4.634131
2264.056,4.623862
2265.984,4.612116
2267.913,4.601105
2269.841,4.590496
2271.77,4.579051
2273.698,4.568085
2275.627,4.558276
2277.555,4.546787
2279.484,4.535661
2281.412,4.525275
2283.341,4.514233
2285.269,4.503478
2287.198,4.493327
2289.126,4.481584
2291.055,4.470783
2292.983,4.460385
2294.912,4.449036
2296.84,4.437982
2298.769,4.427707
2300.697,4.416172
2302.626,4.405775
2304.554,4.394999
2306.483,4.383382
2308.411,4.37289
2310.34,4.362286
2312.268,4.350518
2314.197,4.340199
2316.125,4.329133
2318.054,4.317581
2319.982,4.306801
2321.911,4.295924
2323.839,4.284166
2325.768,4.273941
2327.696,4.263065
2329.625,4.251892
2331.553,4.241936
2333.482,4.232004
2335.41,4.221226
2337.339,4.21259
2339.267,4.203456
2341.196,4.194081
2343.124,4.186659
2345.053,4.179677
2346.981,4.171853
2348.91,4.164361
2350.838,4.152843
2352.767,4.139582
2354.695,4.127556
2356.624,4.115287
2358.552,4.10338
2360.481,4.094037
2362.409,4.084409
2364.338,4.075438
2366.266,4.068521
2368.195,4.061595
2370.123,4.05487
2372.052,4.049965
2373.98,4.043739
2375.908,4.037345
2377.837,4.031683
2379.766,4.025319
2381.694,4.018416
2383.623,4.012125
2385.551,4.004331
2387.479,3.996941
2389.408,3.98992
2391.336,3.981947
2393.265,3.973799
2395.194,3.966574
2397.122,3.957781
2399.051,3.949287
2400.979,3.94085
2402.907,3.931739
2404.836,3.922831
2406.764,3.914707
2408.693,3.905271
2410.622,3.896494
2412.55,3.887856
2414.479,3.878618
2416.407,3.869931
2418.335,3.861446
2420.264,3.851726
2422.192,3.843542
2424.121,3.835155
2426.05,3.825854
2427.978,3.817322
2429.906,3.809077
2431.835,3.799602
2433.763,3.791127
2435.692,3.78227
2437.62,3.773122
2439.549,3.764832
2441.478,3.756413
2443.406,3.747128
2445.334,3.739329
2447.263,3.730803
2449.191,3.72142
2451.12,3.712841
2453.048,3.704359
2454.977,3.695374
2456.906,3.687791
2458.834,3.679279
2460.762,3.670461
2462.691,3.66223
2464.619,3.653903
2466.548,3.644888
2468.476,3.636908
2470.405,3.62815
2472.333,3.619692
2474.262,3.611851
2476.19,3.603251
2478.119,3.59401
2480.047,3.586283
2481.976,3.577693
2483.904,3.569279
2485.833,3.561544
2487.761,3.553147
2489.69,3.544633
2491.618,3.537175
2493.547,3.528276
2495.475,3.520006
2497.404,3.512513
2499.332,3.504292
2501.261,3.496024
2503.189,3.488595
2505.118,3.480106
2507.046,3.472421
2508.975,3.465109
2510.903,3.456784
2512.832,3.448673
2514.76,3.441777
2516.689,3.433276
2518.617,3.425456
2520.546,3.417835
2522.474,3.4096
2524.403,3.402029
2526.331,3.394865
2528.26,3.386332
2530.188,3.379045
2532.117,3.371725
2534.045,3.363349
2535.974,3.355522
2537.902,3.348269
2539.831,3.340183
2541.759,3.333074
2543.688,3.325323
2545.616,3.317149
2547.545,3.309788
2549.473,3.302722
2551.402,3.294606
2553.33,3.287533
2555.259,3.280065
2557.187,3.27234
2559.116,3.265033
2561.044,3.257814
2562.973,3.24977
2564.901,3.242699
2566.83,3.235189
2568.758,3.227682
2570.687,3.220697
2572.615,3.213802
2574.544,3.205896
2576.472,3.19853
2578.401,3.19081
2580.329,3.183574
2582.258,3.176801
2584.186,3.16949
2586.115,3.161784
2588.043,3.154925
2589.972,3.147275
2591.9,3.139954
2593.829,3.132876
2595.757,3.125573
2597.686,3.118172
2599.614,3.111422
2601.543,3.103835
2603.471,3.096835
2605.4,3.090079
2607.328,3.082871
2609.257,3.075435
2611.185,3.068614
2613.114,3.061047
2615.042,3.054296
2616.971,3.047479
2618.899,3.040007
2620.828,3.032731
2622.756,3.026145
2624.685,3.018618
2626.613,3.011864
2628.542,3.005271
2630.47,2.997812
2632.399,2.990649
2634.327,2.98445
2636.256,2.976982
2638.184,2.969875
2640.113,2.963243
2642.041,2.956307
2643.97,2.949297
2645.898,2.942613
2647.827,2.935036
2649.755,2.928508
2651.684,2.921937
2653.612,2.914811
2655.541,2.907895
2657.469,2.901145
2659.398,2.893946
2661.326,2.887786
2663.255,2.880887
2665.183,2.873724
2667.112,2.866921
2669.04,2.860419
2670.969,2.853332
2672.897,2.847203
2674.826,2.840407
2676.754,2.833433
2678.683,2.827019
2680.611,2.820451
2682.54,2.813238
2684.468,2.807093
2686.397,2.800583
2688.325,2.793889
2690.254,2.787336
2692.182,2.780784
2694.111,2.773806
2696.039,2.768007
2697.968,2.76145
2699.896,2.754493
2701.825,2.747968
2703.753,2.74159
2705.682,2.734615
2707.61,2.728678
2709.539,2.722039
2711.467,2.715414
2713.396,2.709271
2715.324,2.702737
2717.253,2.695991
2719.181,2.690593
2721.11,2.684137
2723.038,2.677691
2724.967,2.671598
2726.895,2.66523
2728.823,2.658895
2730.752,2.653132
2732.681,2.646056
2734.609,2.639723
2736.538,2.634063
2738.466,2.627918
2740.395,2.621819
2742.323,2.61637
2744.251,2.609856
2746.18,2.603859
2748.109,2.598038
2750.037,2.592035
2751.966,2.586138
2753.894,2.580354
2755.823,2.57367
2757.751,2.567933
2759.679,2.562208
2761.608,2.55623
2763.537,2.550407
2765.465,2.544832
2767.394,2.538327
2769.322,2.532924
2771.25,2.527117
2773.179,2.520885
2775.107,2.51514
2777.036,2.509547
2778.965,2.503114
2780.893,2.497742
2782.822,2.492051
2784.75,2.485899
2786.678,2.480485
2788.607,2.475066
2790.535,2.468709
2792.464,2.463457
2794.393,2.457785
2796.321,2.451831
2798.25,2.446465
2800.178,2.440998
2802.106,2.434589
2804.035,2.42911
2805.963,2.423259
2807.892,2.417326
2809.821,2.411819
2811.749,2.40637
2813.677,2.400538
2815.606,2.395397
2817.534,2.389148
2819.463,2.382827
2821.391,2.37743
2823.32,2.3721
2825.249,2.365946
2827.177,2.360522
2829.105,2.354763
2831.034,2.349163
2832.962,2.343473
2834.891,2.337527
2836.819,2.331269
2838.748,2.32563
2840.677,2.318936
2842.605,2.312356
2844.533,2.30592
2846.462,2.299554
2848.39,2.292852
2850.319,2.286378
2852.247,2.27925
2854.176,2.272883
2856.104,2.267309
2858.033,2.261803
2859.961,2.256183
2861.89,2.251527
2863.818,2.246046
2865.747,2.240804
2867.675,2.235397
2869.604,2.229739
2871.532,2.224249
2873.461,2.219759
2875.389,2.214189
2877.318,2.208942
2879.246,2.203935
2881.175,2.198963
2883.103,2.193943
2885.032,2.189091
2886.96,2.183306
2888.889,2.178036
2890.817,2.172818
2892.746,2.167388
2894.674,2.161385
2896.603,2.155959
2898.531,2.150251
2900.46,2.144798
2902.388,2.138792
2904.317,2.132654
2906.245,2.126532
2908.174,2.12122
2910.102,2.115559
2912.031,2.109844
2913.959,2.103411
2915.888,2.097164
2917.816,2.090805
2919.745,2.084712
2921.673,2.078284
2923.602,2.072853
2925.53,2.067518
2927.459,2.062364
2929.387,2.057312
2931.316,2.052927
2933.244,2.048374
2935.173,2.044697
2937.101,2.040721
2939.03,2.036747
2940.958,2.03273
2942.887,2.028935
2944.815,2.024132
2946.744,2.019828
2948.672,2.015311
2950.601,2.010244
2952.529,2.004458
2954.458,1.998579
2956.386,1.992335
2958.315,1.986767
2960.243,1.980973
2962.172,1.975702
2964.1,1.971135
2966.029,1.967824
2967.957,1.964688
2969.886,1.962565
2971.814,1.960283
2973.743,1.957723
2975.671,1.954759
2977.6,1.951988
2979.528,1.948481
2981.457,1.944652
2983.385,1.940815
2985.314,1.937419
2987.242,1.933306
2989.171,1.929121
2991.099,1.925058
2993.028,1.921201
2994.956,1.916861
2996.885,1.912803
2998.813,1.908143
3000.742,1.90389
3002.67,1.899709
3004.599,1.895445
3006.527,1.890734
3008.456,1.886417
3010.384,1.882025
3012.313,1.878161
3014.241,1.873889
3016.17,1.869276
3018.098,1.864639
3020.027,1.860611
3021.955,1.85586
3023.884,1.851435
3025.812,1.847023
3027.741,1.842725
3029.669,1.838514
3031.598,1.834566
3033.526,1.830017
3035.455,1.825741
3037.383,1.821373
3039.312,1.817063
3041.24,1.812751
3043.169,1.808826
3045.097,1.804019
3047.026,1.799801
3048.954,1.795679
3050.883,1.791267
3052.811,1.786782
3054.74,1.782837
3056.668,1.778161
3058.597,1.773823
3060.525,1.769578
3062.454,1.76526
3064.382,1.7609
3066.311,1.757147
3068.239,1.752497
3070.167,1.748319
3072.096,1.743988
3074.025,1.73936
3075.953,1.735252
3077.882,1.731663
3079.81,1.727077
3081.739,1.722968
3083.667,1.718908
3085.595,1.714519
3087.524,1.710117
3089.453,1.70614
3091.381,1.70144
3093.31,1.697284
3095.238,1.693243
3097.167,1.689075
3099.095,1.684607
3101.023,1.680727
3102.952,1.676187
3104.881,1.672153
3106.809,1.668126
3108.738,1.663903
3110.666,1.659449
3112.594,1.655543
3114.523,1.65133
3116.451,1.647595
3118.38,1.643301
3120.309,1.638901
3122.237,1.635018
3124.166,1.631721
3126.094,1.627178
3128.022,1.623006
3129.951,1.618878
3131.879,1.614844
3133.808,1.610782
3135.737,1.606911
3137.665,1.602824
3139.594,1.599376
3141.522,1.595229
3143.45,1.590949
3145.379,1.586809
3147.307,1.583166
3149.236,1.579213
3151.165,1.575845
3153.093,1.571727
3155.021,1.567571
3156.95,1.563671
3158.878,1.559815
3160.807,1.555685
3162.735,1.55198
3164.664,1.548175
3166.593,1.544359
3168.521,1.540238
3170.449,1.536542
3172.378,1.532593
3174.306,1.529101
3176.235,1.52505
3178.163,1.521321
3180.092,1.517631
3182.021,1.514141
3183.949,1.510154
3185.877,1.50645
3187.806,1.502691
3189.734,1.499073
3191.663,1.495155
3193.591,1.491606
3195.52,1.487678
3197.448,1.484058
3199.377,1.480413
3201.305,1.476799
3203.234,1.472693
3205.162,1.468946
3207.091,1.465141
3209.019,1.461685
3210.948,1.458178
3212.876,1.454855
3214.805,1.45121
3216.733,1.447935
3218.662,1.444329
3220.59,1.44077
3222.519,1.437343
3224.447,1.434337
3226.376,1.430494
3228.304,1.426992
3230.233,1.423283
3232.161,1.420019
3234.09,1.41662
3236.018,1.413055
3237.947,1.409163
3239.875,1.406117
3241.804,1.40292
3243.732,1.399328
3245.661,1.395637
3247.589,1.392218
3249.518,1.388412
3251.446,1.385393
3253.375,1.382109
3255.303,1.378544
3257.232,1.374759
3259.16,1.371362
3261.089,1.367894
3263.017,1.364767
3264.946,1.361327
3266.874,1.35806
3268.803,1.35477
3270.731,1.351508
3272.66,1.3477
3274.588,1.344639
3276.517,1.341173
3278.445,1.337779
3280.374,1.334536
3282.302,1.331485
3284.231,1.32802
3286.159,1.324958
3288.088,1.321678
3290.016,1.318499
3291.945,1.315257
3293.873,1.311986
3295.802,1.308302
3297.73,1.305209
3299.659,1.301942
3301.587,1.298875
3303.516,1.295895
3305.444,1.29296
3307.373,1.289546
3309.301,1.286418
3311.23,1.282974
3313.158,1.280044
3315.087,1.276891
3317.015,1.273855
3318.944,1.270541
3320.872,1.267571
3322.801,1.264373
3324.729,1.261297
3326.658,1.258355
3328.586,1.255541
3330.515,1.252227
3332.443,1.249353
3334.372,1.246396
3336.3,1.243709
3338.229,1.240772
3340.157,1.237845
3342.086,1.234519
3344.014,1.231716
3345.943,1.228672
3347.871,1.225594
3349.8,1.22271
3351.728,1.220204
3353.657,1.217131
3355.585,1.214101
3357.514,1.210971
3359.442,1.208145
3361.371,1.205262
3363.299,1.20268
3365.228,1.199593
3367.156,1.19686
3369.085,1.194191
3371.013,1.191549
3372.942,1.188561
3374.87,1.185791
3376.799,1.182757
3378.727,1.180258
3380.656,1.177223
3382.584,1.174224
3384.513,1.171264
3386.441,1.168524
3388.37,1.16551
3390.298,1.16303
3392.227,1.160182
3394.155,1.157172
3396.083,1.154186
3398.012,1.151697
3399.941,1.148646
3401.869,1.14581
3403.798,1.142865
3405.726,1.140006
3407.655,1.137009
3409.583,1.134157
3411.511,1.131041
3413.44,1.128084
3415.369,1.1248
3417.297,1.121624
3419.226,1.118217
3421.154,1.115171
3423.083,1.111692
3425.011,1.108461
3426.939,1.104976
3428.868,1.101477
3430.797,1.097634
3432.725,1.0945
3434.654,1.090867
3436.582,1.08751
3438.51,1.08455
3440.439,1.081666
3442.367,1.078631
3444.296,1.076384
3446.225,1.073924
3448.153,1.071789
3450.082,1.069544
3452.01,1.067259
3453.938,1.064693
3455.867,1.06259
3457.795,1.060108
3459.724,1.057454
3461.653,1.054887
3463.581,1.052835
3465.51,1.050592
3467.438,1.04836
3469.366,1.045856
3471.295,1.04378
3473.223,1.041667
3475.152,1.039734
3477.081,1.037348
3479.009,1.035599
3480.938,1.033548
3482.866,1.031766
3484.794,1.030172
3486.723,1.028873
3488.651,1.027322
3490.58,1.026095
3492.509,1.024508
3494.437,1.022902
3496.365,1.02145
3498.294,1.020473
3500.222,1.018923
3502.151,1.017366
3504.079,1.015816
3506.008,1.014603
3507.937,1.012971
3509.865,1.011255
3511.793,1.0096
3513.722,1.008765
3515.65,1.007455
3517.579,1.005788
3519.507,1.004008
3521.436,1.002475
3523.365,1.000372
3525.293,0.998816
3527.221,0.9971631
3529.15,0.9957576
3531.078,0.9941273
3533.007,0.9925107
3534.935,0.9903788
3536.864,0.9885811
3538.792,0.9867907
3540.721,0.9851004
3542.649,0.9828101
3544.578,0.9809827
3546.506,0.9790528
3548.435,0.9774421
3550.363,0.975531
3552.292,0.9737251
3554.22,0.9716529
3556.149,0.969686
3558.077,0.9676434
3560.006,0.9656559
3561.934,0.9633353
3563.863,0.9611498
3565.791,0.9585266
3567.72,0.9567614
3569.648,0.9551324
3571.577,0.9535342
3573.505,0.9514785
3575.434,0.9497585
3577.362,0.9477035
3579.291,0.9459034
3581.219,0.9440172
3583.148,0.9421125
3585.076,0.9394571
3587.005,0.9371338
3588.933,0.9355463
3590.862,0.9346125
3592.79,0.9328717
3594.719,0.9309391
3596.647,0.9286961
3598.576,0.9269062
3600.504,0.9249987
3602.433,0.9236235
3604.361,0.9215508
3606.29,0.9191641
3608.218,0.9166328
3610.147,0.9149697
3612.075,0.9130077
3614.004,0.9114308
3615.932,0.9096822
3617.861,0.9074322
3619.789,0.9053449
3621.718,0.9040639
3623.646,0.9019341
3625.575,0.8999569
3627.503,0.8965863
3629.432,0.8941641
3631.36,0.8934348
3633.289,0.892055
3635.217,0.8900818
3637.146,0.8883474
3639.074,0.8860115
3641.003,0.8838301
3642.931,0.8815598
3644.86,0.8786361
3646.788,0.8741103
3648.717,0.8711309
3650.645,0.8707288
3652.574,0.870936
3654.502,0.8691859
3656.431,0.8672172
3658.359,0.8658381
3660.288,0.8644119
3662.216,0.8622371
3664.145,0.8603566
3666.073,0.8582291
3668.002,0.8552045
3669.93,0.8521628
3671.859,0.851164
3673.787,0.8488214
3675.716,0.8463634
3677.644,0.8458548
3679.573,0.8449454
3681.501,0.8433318
3683.43,0.8417512
3685.358,0.8394151
3687.287,0.8360479
3689.215,0.8341913
3691.144,0.8337646
3693.072,0.8326288
3695.001,0.8315142
3696.929,0.8299657
3698.858,0.8282858
3700.786,0.8261828
3702.715,0.8249381
3704.643,0.8233658
3706.572,0.8214884
3708.5,0.8192628
3710.429,0.8170525
3712.357,0.8150387
3714.286,0.8143323
3716.214,0.812815
3718.143,0.8109186
3720.071,0.8085186
3722,0.806315
3723.928,0.8040215
3725.857,0.8016759
3727.785,0.7993165
3729.714,0.7967919
3731.642,0.7932651
3733.571,0.7906873
3735.499,0.7882782
3737.427,0.7879462
3739.356,0.7881438
3741.285,0.7880592
3743.213,0.7864875
3745.142,0.7870973
3747.07,0.7884609
3748.999,0.7873584
3750.927,0.786498
3752.855,0.7867151
3754.784,0.7869065
3756.713,0.7861021
3758.641,0.784852
3760.57,0.7836503
3762.498,0.7823728
3764.427,0.7809534
3766.355,0.7795972
3768.283,0.7782253
3770.212,0.7767599
3772.141,0.7757543
3774.069,0.7742673
3775.998,0.7727357
3777.926,0.7709291
3779.854,0.7695714
3781.783,0.7680982
3783.711,0.7663131
3785.64,0.7647387
3787.569,0.7634849
3789.497,0.762024
3791.426,0.7606032
3793.354,0.7587515
3795.282,0.7570112
3797.211,0.7555251
3799.139,0.7532489
3801.068,0.7505257
3802.997,0.7499692
3804.925,0.7486292
3806.854,0.7467573
3808.782,0.7461315
3810.71,0.745299
3812.639,0.7434272
3814.567,0.7408621
3816.496,0.7391399
3818.425,0.7384166
3820.353,0.7361782
3822.281,0.7350851
3824.21,0.7340749
3826.138,0.7325611
3828.067,0.7309918
3829.995,0.7292107
3831.924,0.7276092
3833.853,0.7264488
3835.781,0.724005
3837.709,0.721886
3839.638,0.7212394
3841.566,0.7204666
3843.495,0.7188439
3845.423,0.7173808
3847.352,0.7159319
3849.281,0.7143933
3851.209,0.7111412
3853.137,0.7081851
3855.066,0.7081192
3856.994,0.7087109
3858.923,0.7075772
3860.851,0.705914
3862.78,0.7040119
3864.708,0.7026646
3866.637,0.701527
3868.565,0.6996307
3870.494,0.6978517
3872.422,0.6971228
3874.351,0.6958418
3876.279,0.6949099
3878.208,0.693123
3880.136,0.6914725
3882.065,0.6902249
3883.993,0.6888931
3885.922,0.6872303
3887.85,0.6861237
3889.779,0.6843461
3891.707,0.6832152
3893.636,0.6821828
3895.564,0.6809516
3897.493,0.6791185
3899.421,0.6774304
3901.35,0.6759033
3903.278,0.6747292
3905.207,0.673622
3907.135,0.6728227
3909.064,0.6716787
3910.992,0.6704308
3912.921,0.6689525
3914.849,0.6675106
3916.778,0.6658021
3918.706,0.664478
3920.635,0.6633886
3922.563,0.6624965
3924.492,0.6611184
3926.42,0.6599348
3928.349,0.6584877
3930.277,0.6571213
3932.206,0.6558743
3934.134,0.6549959
3936.063,0.6535601
3937.991,0.6522999
3939.92,0.6509867
3941.848,0.6494618
3943.777,0.6480983
3945.705,0.6472061
3947.634,0.6455746
3949.562,0.6442574
3951.491,0.6431386
3953.419,0.6422058
3955.348,0.6408005
3957.276,0.6395171
3959.205,0.6380886
3961.133,0.6370512
3963.062,0.636107
3964.99,0.6349605
3966.919,0.6334719
3968.847,0.6323332
3970.776,0.6308001
3972.704,0.629773
3974.633,0.6288952
3976.561,0.6277036
3978.49,0.6261656
3980.418,0.6250585
3982.347,0.6237566
3984.275,0.622639
3986.204,0.6214309
3988.132,0.6202569
3990.061,0.6187595
3991.989,0.6176215
3993.918,0.6165103
3995.846,0.6156513
3997.775,0.6144753
3999.703,0.613221
