3.991989e+002;2.275567e+000
4.011274e+002;2.431788e+000
4.030559e+002;2.584733e+000
4.049844e+002;2.740550e+000
4.069129e+002;2.900440e+000
4.088414e+002;3.057459e+000
4.107699e+002;3.221509e+000
4.126984e+002;3.393042e+000
4.146269e+002;3.567509e+000
4.165554e+002;3.736619e+000
4.184839e+002;3.902698e+000
4.204124e+002;4.080461e+000
4.223409e+002;4.258703e+000
4.242694e+002;4.422035e+000
4.261979e+002;4.589453e+000
4.281264e+002;4.756134e+000
4.300549e+002;4.914810e+000
4.319834e+002;5.066906e+000
4.339119e+002;5.217638e+000
4.358404e+002;5.362627e+000
4.377689e+002;5.512712e+000
4.396974e+002;5.656222e+000
4.416259e+002;5.782860e+000
4.435544e+002;5.906271e+000
4.454829e+002;6.027277e+000
4.474114e+002;6.136713e+000
4.493399e+002;6.246743e+000
4.512684e+002;6.344060e+000
4.531969e+002;6.431794e+000
4.551254e+002;6.522590e+000
4.570539e+002;6.612631e+000
4.589824e+002;6.700824e+000
4.609109e+002;6.785410e+000
4.628394e+002;6.875733e+000
4.647679e+002;6.972766e+000
4.666964e+002;7.074079e+000
4.686248e+002;7.187358e+000
4.705533e+002;7.298428e+000
4.724818e+002;7.413533e+000
4.744103e+002;7.536660e+000
4.763388e+002;7.663623e+000
4.782673e+002;7.795069e+000
4.801958e+002;7.936463e+000
4.821243e+002;8.077031e+000
4.840528e+002;8.219862e+000
4.859813e+002;8.363309e+000
4.879098e+002;8.499936e+000
4.898383e+002;8.633029e+000
4.917668e+002;8.768864e+000
4.936953e+002;8.903100e+000
4.956238e+002;9.040191e+000
4.975523e+002;9.175205e+000
4.994808e+002;9.302103e+000
5.014093e+002;9.422604e+000
5.033378e+002;9.536708e+000
5.052663e+002;9.641932e+000
5.071948e+002;9.746520e+000
5.091233e+002;9.850075e+000
5.110518e+002;9.949186e+000
5.129803e+002;1.004474e+001
5.149088e+002;1.014202e+001
5.168373e+002;1.023182e+001
5.187657e+002;1.031957e+001
5.206943e+002;1.041508e+001
5.226227e+002;1.051240e+001
5.245513e+002;1.060296e+001
5.264797e+002;1.070118e+001
5.284083e+002;1.080390e+001
5.303367e+002;1.090198e+001
5.322653e+002;1.100520e+001
5.341937e+002;1.110820e+001
5.361223e+002;1.120698e+001
5.380507e+002;1.130758e+001
5.399792e+002;1.140752e+001
5.419077e+002;1.150675e+001
5.438362e+002;1.160613e+001
5.457647e+002;1.170794e+001
5.476932e+002;1.180821e+001
5.496217e+002;1.190841e+001
5.515502e+002;1.201324e+001
5.534787e+002;1.211862e+001
5.554072e+002;1.222405e+001
5.573357e+002;1.233139e+001
5.592642e+002;1.244171e+001
5.611927e+002;1.255941e+001
5.631212e+002;1.267980e+001
5.650497e+002;1.279917e+001
5.669782e+002;1.292276e+001
5.689067e+002;1.305062e+001
5.708352e+002;1.317753e+001
5.727637e+002;1.330455e+001
5.746922e+002;1.343433e+001
5.766207e+002;1.356448e+001
5.785492e+002;1.369677e+001
5.804777e+002;1.383228e+001
5.824062e+002;1.396331e+001
5.843347e+002;1.409573e+001
5.862632e+002;1.423607e+001
5.881917e+002;1.437744e+001
5.901202e+002;1.451957e+001
5.920486e+002;1.466743e+001
5.939772e+002;1.481689e+001
5.959056e+002;1.497030e+001
5.978342e+002;1.512874e+001
5.997626e+002;1.528673e+001
6.016912e+002;1.544751e+001
6.036196e+002;1.560942e+001
6.055482e+002;1.576529e+001
6.074766e+002;1.591553e+001
6.094052e+002;1.606348e+001
6.113336e+002;1.621089e+001
6.132621e+002;1.636327e+001
6.151906e+002;1.651792e+001
6.171191e+002;1.665905e+001
6.190476e+002;1.679532e+001
6.209761e+002;1.693574e+001
6.229046e+002;1.707944e+001
6.248331e+002;1.721739e+001
6.267616e+002;1.735386e+001
6.286901e+002;1.749639e+001
6.306186e+002;1.764354e+001
6.325471e+002;1.778626e+001
6.344756e+002;1.792177e+001
6.364041e+002;1.805275e+001
6.383326e+002;1.818858e+001
6.402611e+002;1.832279e+001
6.421896e+002;1.844773e+001
6.441181e+002;1.856669e+001
6.460466e+002;1.867725e+001
6.479751e+002;1.878947e+001
6.499036e+002;1.891803e+001
6.518321e+002;1.904012e+001
6.537606e+002;1.915103e+001
6.556891e+002;1.925606e+001
6.576176e+002;1.935688e+001
6.595461e+002;1.945341e+001
6.614745e+002;1.955022e+001
6.634031e+002;1.964602e+001
6.653315e+002;1.973250e+001
6.672601e+002;1.980705e+001
6.691885e+002;1.990312e+001
6.711171e+002;2.000841e+001
6.730455e+002;2.010583e+001
6.749741e+002;2.020406e+001
6.769025e+002;2.030021e+001
6.788311e+002;2.039341e+001
6.807595e+002;2.048457e+001
6.826880e+002;2.057545e+001
6.846165e+002;2.066571e+001
6.865450e+002;2.075472e+001
6.884735e+002;2.084131e+001
6.904020e+002;2.092895e+001
6.923305e+002;2.101857e+001
6.942590e+002;2.110447e+001
6.961875e+002;2.118737e+001
6.981160e+002;2.126955e+001
7.000445e+002;2.134900e+001
7.019730e+002;2.142663e+001
7.039015e+002;2.150002e+001
7.058300e+002;2.156847e+001
7.077585e+002;2.163697e+001
7.096870e+002;2.170298e+001
7.116155e+002;2.176414e+001
7.135440e+002;2.182352e+001
7.154725e+002;2.187999e+001
7.174010e+002;2.193182e+001
7.193295e+002;2.198291e+001
7.212580e+002;2.203136e+001
7.231865e+002;2.207910e+001
7.251150e+002;2.212699e+001
7.270435e+002;2.217313e+001
7.289720e+002;2.221909e+001
7.309005e+002;2.226653e+001
7.328290e+002;2.231360e+001
7.347574e+002;2.236177e+001
7.366860e+002;2.241262e+001
7.386144e+002;2.246454e+001
7.405430e+002;2.251715e+001
7.424714e+002;2.257247e+001
7.444000e+002;2.262908e+001
7.463284e+002;2.268569e+001
7.482570e+002;2.274401e+001
7.501854e+002;2.280418e+001
7.521140e+002;2.286458e+001
7.540424e+002;2.292677e+001
7.559709e+002;2.299009e+001
7.578994e+002;2.305210e+001
7.598279e+002;2.311320e+001
7.617564e+002;2.317341e+001
7.636849e+002;2.323103e+001
7.656134e+002;2.328651e+001
7.675419e+002;2.333799e+001
7.694704e+002;2.338544e+001
7.713989e+002;2.343042e+001
7.733274e+002;2.347071e+001
7.752559e+002;2.350812e+001
7.771844e+002;2.354486e+001
7.791129e+002;2.357811e+001
7.810414e+002;2.360668e+001
7.829699e+002;2.363041e+001
7.848984e+002;2.364865e+001
7.868269e+002;2.366017e+001
7.887554e+002;2.366578e+001
7.906839e+002;2.366964e+001
7.926124e+002;2.367341e+001
7.945409e+002;2.368413e+001
7.964694e+002;2.370589e+001
7.983979e+002;2.373515e+001
8.003264e+002;2.377200e+001
8.022549e+002;2.381949e+001
8.041833e+002;2.387401e+001
8.061119e+002;2.393474e+001
8.080403e+002;2.400164e+001
8.099689e+002;2.407085e+001
8.118973e+002;2.414099e+001
8.138259e+002;2.421122e+001
8.157543e+002;2.427927e+001
8.176829e+002;2.434586e+001
8.196113e+002;2.441172e+001
8.215399e+002;2.448092e+001
8.234683e+002;2.455651e+001
8.253969e+002;2.463751e+001
8.273253e+002;2.471921e+001
8.292538e+002;2.479762e+001
8.311823e+002;2.487131e+001
8.331108e+002;2.494094e+001
8.350393e+002;2.500817e+001
8.369678e+002;2.507556e+001
8.388963e+002;2.514288e+001
8.408248e+002;2.521015e+001
8.427533e+002;2.527807e+001
8.446818e+002;2.534670e+001
8.466103e+002;2.541628e+001
8.485388e+002;2.548565e+001
8.504673e+002;2.555192e+001
8.523958e+002;2.561349e+001
8.543243e+002;2.567167e+001
8.562528e+002;2.572661e+001
8.581813e+002;2.577881e+001
8.601098e+002;2.583202e+001
8.620383e+002;2.588981e+001
8.639668e+002;2.595319e+001
8.658953e+002;2.602468e+001
8.678238e+002;2.610573e+001
8.697523e+002;2.619219e+001
8.716808e+002;2.628215e+001
8.736093e+002;2.637283e+001
8.755378e+002;2.646222e+001
8.774662e+002;2.655242e+001
8.793948e+002;2.664359e+001
8.813232e+002;2.673399e+001
8.832518e+002;2.682397e+001
8.851802e+002;2.691399e+001
8.871088e+002;2.700227e+001
8.890372e+002;2.708974e+001
8.909658e+002;2.717926e+001
8.928942e+002;2.727015e+001
8.948227e+002;2.736096e+001
8.967512e+002;2.745486e+001
8.986797e+002;2.755155e+001
9.006082e+002;2.764891e+001
9.025367e+002;2.775081e+001
9.044652e+002;2.785517e+001
9.063937e+002;2.796043e+001
9.083222e+002;2.806723e+001
9.102507e+002;2.817515e+001
9.121792e+002;2.828172e+001
9.141077e+002;2.838735e+001
9.160362e+002;2.849239e+001
9.179647e+002;2.859728e+001
9.198932e+002;2.870605e+001
9.218217e+002;2.882033e+001
9.237502e+002;2.894000e+001
9.256786e+002;2.906583e+001
9.276072e+002;2.919308e+001
9.295356e+002;2.931754e+001
9.314642e+002;2.944014e+001
9.333926e+002;2.956159e+001
9.353212e+002;2.967942e+001
9.372496e+002;2.979482e+001
9.391782e+002;2.990675e+001
9.411066e+002;3.001582e+001
9.430352e+002;3.012403e+001
9.449636e+002;3.023119e+001
9.468922e+002;3.033597e+001
9.488206e+002;3.043885e+001
9.507491e+002;3.054105e+001
9.526776e+002;3.063927e+001
9.546061e+002;3.072989e+001
9.565346e+002;3.081417e+001
9.584631e+002;3.089193e+001
9.603916e+002;3.096803e+001
9.623201e+002;3.104818e+001
9.642486e+002;3.114046e+001
9.661771e+002;3.124829e+001
9.681056e+002;3.136349e+001
9.700341e+002;3.147509e+001
9.719626e+002;3.157781e+001
9.738911e+002;3.167618e+001
9.758196e+002;3.178019e+001
9.777481e+002;3.188321e+001
9.796766e+002;3.197277e+001
9.816051e+002;3.204824e+001
9.835336e+002;3.211359e+001
9.854621e+002;3.217316e+001
9.873906e+002;3.222908e+001
9.893191e+002;3.228240e+001
9.912476e+002;3.233670e+001
9.931761e+002;3.239452e+001
9.951046e+002;3.245815e+001
9.970331e+002;3.252545e+001
9.989615e+002;3.259021e+001
1.000890e+003;3.264573e+001
1.002819e+003;3.268800e+001
1.004747e+003;3.271312e+001
1.006676e+003;3.271944e+001
1.008604e+003;3.271004e+001
1.010533e+003;3.268794e+001
1.012461e+003;3.265707e+001
1.014390e+003;3.262460e+001
1.016318e+003;3.259710e+001
1.018247e+003;3.257987e+001
1.020175e+003;3.257695e+001
1.022104e+003;3.258683e+001
1.024032e+003;3.260420e+001
1.025961e+003;3.262556e+001
1.027889e+003;3.264686e+001
1.029818e+003;3.266540e+001
1.031746e+003;3.268067e+001
1.033675e+003;3.269108e+001
1.035603e+003;3.269553e+001
1.037531e+003;3.269457e+001
1.039460e+003;3.268819e+001
1.041389e+003;3.267593e+001
1.043317e+003;3.266075e+001
1.045245e+003;3.264604e+001
1.047174e+003;3.263181e+001
1.049103e+003;3.261838e+001
1.051031e+003;3.260620e+001
1.052959e+003;3.259502e+001
1.054888e+003;3.258447e+001
1.056817e+003;3.257596e+001
1.058745e+003;3.256821e+001
1.060673e+003;3.256295e+001
1.062602e+003;3.256073e+001
1.064531e+003;3.255883e+001
1.066459e+003;3.255745e+001
1.068387e+003;3.255988e+001
1.070316e+003;3.256507e+001
1.072245e+003;3.256565e+001
1.074173e+003;3.256735e+001
1.076101e+003;3.259498e+001
1.078030e+003;3.264391e+001
1.079958e+003;3.270986e+001
1.081887e+003;3.283912e+001
1.083815e+003;3.300551e+001
1.085744e+003;3.314672e+001
1.087672e+003;3.325875e+001
1.089601e+003;3.335477e+001
1.091529e+003;3.344169e+001
1.093458e+003;3.352446e+001
1.095386e+003;3.360914e+001
1.097315e+003;3.369889e+001
1.099243e+003;3.379325e+001
1.101172e+003;3.389265e+001
1.103100e+003;3.399854e+001
1.105029e+003;3.410978e+001
1.106957e+003;3.422561e+001
1.108886e+003;3.434554e+001
1.110814e+003;3.446820e+001
1.112743e+003;3.459197e+001
1.114671e+003;3.471708e+001
1.116600e+003;3.484259e+001
1.118528e+003;3.496540e+001
1.120457e+003;3.508659e+001
1.122385e+003;3.520608e+001
1.124314e+003;3.532192e+001
1.126242e+003;3.543377e+001
1.128171e+003;3.554301e+001
1.130099e+003;3.564922e+001
1.132028e+003;3.575261e+001
1.133956e+003;3.585435e+001
1.135885e+003;3.595272e+001
1.137813e+003;3.603658e+001
1.139742e+003;3.609448e+001
1.141670e+003;3.614296e+001
1.143599e+003;3.622410e+001
1.145527e+003;3.631696e+001
1.147456e+003;3.638697e+001
1.149384e+003;3.645047e+001
1.151313e+003;3.657647e+001
1.153241e+003;3.677255e+001
1.155170e+003;3.696114e+001
1.157098e+003;3.711621e+001
1.159027e+003;3.725240e+001
1.160955e+003;3.737753e+001
1.162884e+003;3.749403e+001
1.164812e+003;3.760577e+001
1.166741e+003;3.772485e+001
1.168669e+003;3.784258e+001
1.170598e+003;3.794867e+001
1.172526e+003;3.804253e+001
1.174455e+003;3.812382e+001
1.176383e+003;3.815604e+001
1.178312e+003;3.807973e+001
1.180240e+003;3.801068e+001
1.182169e+003;3.825201e+001
1.184097e+003;3.862072e+001
1.186026e+003;3.883533e+001
1.187954e+003;3.896953e+001
1.189883e+003;3.907798e+001
1.191811e+003;3.917747e+001
1.193740e+003;3.926709e+001
1.195668e+003;3.935362e+001
1.197597e+003;3.943743e+001
1.199525e+003;3.952426e+001
1.201454e+003;3.960592e+001
1.203382e+003;3.968499e+001
1.205311e+003;3.976020e+001
1.207239e+003;3.983348e+001
1.209168e+003;3.990135e+001
1.211096e+003;3.996913e+001
1.213025e+003;4.003501e+001
1.214953e+003;4.010291e+001
1.216882e+003;4.017006e+001
1.218810e+003;4.023766e+001
1.220739e+003;4.030248e+001
1.222667e+003;4.036753e+001
1.224596e+003;4.042985e+001
1.226524e+003;4.049214e+001
1.228453e+003;4.055431e+001
1.230381e+003;4.061761e+001
1.232310e+003;4.067884e+001
1.234238e+003;4.074133e+001
1.236167e+003;4.080156e+001
1.238095e+003;4.086039e+001
1.240024e+003;4.091618e+001
1.241952e+003;4.096870e+001
1.243881e+003;4.101460e+001
1.245809e+003;4.105842e+001
1.247738e+003;4.109697e+001
1.249666e+003;4.112960e+001
1.251595e+003;4.115113e+001
1.253523e+003;4.115415e+001
1.255452e+003;4.112708e+001
1.257380e+003;4.107722e+001
1.259309e+003;4.102383e+001
1.261237e+003;4.100278e+001
1.263166e+003;4.103962e+001
1.265094e+003;4.113952e+001
1.267023e+003;4.128326e+001
1.268951e+003;4.144016e+001
1.270880e+003;4.157323e+001
1.272808e+003;4.167799e+001
1.274737e+003;4.176268e+001
1.276665e+003;4.183463e+001
1.278594e+003;4.189135e+001
1.280522e+003;4.193736e+001
1.282451e+003;4.197731e+001
1.284379e+003;4.201424e+001
1.286308e+003;4.204663e+001
1.288236e+003;4.208061e+001
1.290165e+003;4.211425e+001
1.292093e+003;4.214665e+001
1.294022e+003;4.217622e+001
1.295950e+003;4.220533e+001
1.297879e+003;4.223374e+001
1.299807e+003;4.226444e+001
1.301736e+003;4.229339e+001
1.303664e+003;4.232267e+001
1.305593e+003;4.235315e+001
1.307521e+003;4.238585e+001
1.309450e+003;4.241615e+001
1.311378e+003;4.244630e+001
1.313307e+003;4.247392e+001
1.315235e+003;4.250067e+001
1.317164e+003;4.252316e+001
1.319092e+003;4.254606e+001
1.321021e+003;4.256951e+001
1.322949e+003;4.259288e+001
1.324878e+003;4.261330e+001
1.326806e+003;4.263449e+001
1.328735e+003;4.265477e+001
1.330663e+003;4.267354e+001
1.332592e+003;4.268926e+001
1.334520e+003;4.270655e+001
1.336449e+003;4.271849e+001
1.338377e+003;4.272881e+001
1.340306e+003;4.274508e+001
1.342234e+003;4.276861e+001
1.344163e+003;4.278065e+001
1.346091e+003;4.278669e+001
1.348020e+003;4.279062e+001
1.349948e+003;4.279861e+001
1.351877e+003;4.280917e+001
1.353805e+003;4.282299e+001
1.355734e+003;4.283646e+001
1.357662e+003;4.285165e+001
1.359591e+003;4.285825e+001
1.361519e+003;4.285689e+001
1.363448e+003;4.286654e+001
1.365376e+003;4.289195e+001
1.367305e+003;4.290063e+001
1.369233e+003;4.290609e+001
1.371161e+003;4.290938e+001
1.373090e+003;4.289956e+001
1.375019e+003;4.289793e+001
1.376947e+003;4.291230e+001
1.378875e+003;4.291460e+001
1.380804e+003;4.290863e+001
1.382733e+003;4.288773e+001
1.384661e+003;4.288594e+001
1.386589e+003;4.290392e+001
1.388518e+003;4.295419e+001
1.390447e+003;4.300296e+001
1.392375e+003;4.300847e+001
1.394303e+003;4.299370e+001
1.396232e+003;4.301401e+001
1.398161e+003;4.302778e+001
1.400089e+003;4.305252e+001
1.402017e+003;4.308933e+001
1.403946e+003;4.310177e+001
1.405875e+003;4.312384e+001
1.407803e+003;4.315667e+001
1.409731e+003;4.317643e+001
1.411660e+003;4.319627e+001
1.413589e+003;4.321638e+001
1.415517e+003;4.322693e+001
1.417445e+003;4.319941e+001
1.419374e+003;4.318668e+001
1.421302e+003;4.326081e+001
1.423231e+003;4.330617e+001
1.425159e+003;4.332802e+001
1.427088e+003;4.334802e+001
1.429016e+003;4.334523e+001
1.430945e+003;4.335650e+001
1.432873e+003;4.337009e+001
1.434802e+003;4.333221e+001
1.436730e+003;4.328797e+001
1.438659e+003;4.334597e+001
1.440587e+003;4.337978e+001
1.442516e+003;4.338052e+001
1.444444e+003;4.337478e+001
1.446373e+003;4.335886e+001
1.448301e+003;4.334650e+001
1.450230e+003;4.335946e+001
1.452158e+003;4.335268e+001
1.454087e+003;4.330992e+001
1.456015e+003;4.318637e+001
1.457944e+003;4.319490e+001
1.459872e+003;4.330664e+001
1.461801e+003;4.334790e+001
1.463729e+003;4.332710e+001
1.465658e+003;4.333739e+001
1.467586e+003;4.338784e+001
1.469515e+003;4.339917e+001
1.471443e+003;4.335795e+001
1.473372e+003;4.336730e+001
1.475300e+003;4.343888e+001
1.477229e+003;4.348944e+001
1.479157e+003;4.352544e+001
1.481086e+003;4.353499e+001
1.483014e+003;4.355068e+001
1.484943e+003;4.355124e+001
1.486871e+003;4.353122e+001
1.488800e+003;4.351166e+001
1.490728e+003;4.352332e+001
1.492657e+003;4.356527e+001
1.494585e+003;4.353810e+001
1.496514e+003;4.349603e+001
1.498442e+003;4.353205e+001
1.500371e+003;4.357471e+001
1.502299e+003;4.358876e+001
1.504228e+003;4.349192e+001
1.506156e+003;4.336737e+001
1.508085e+003;4.343438e+001
1.510013e+003;4.353953e+001
1.511942e+003;4.355736e+001
1.513870e+003;4.356275e+001
1.515799e+003;4.353595e+001
1.517727e+003;4.352028e+001
1.519656e+003;4.347088e+001
1.521584e+003;4.342842e+001
1.523513e+003;4.349648e+001
1.525441e+003;4.351884e+001
1.527370e+003;4.353846e+001
1.529298e+003;4.356062e+001
1.531227e+003;4.354988e+001
1.533155e+003;4.350975e+001
1.535084e+003;4.353775e+001
1.537012e+003;4.349826e+001
1.538941e+003;4.335262e+001
1.540869e+003;4.335376e+001
1.542798e+003;4.345236e+001
1.544726e+003;4.351011e+001
1.546655e+003;4.355672e+001
1.548583e+003;4.356904e+001
1.550512e+003;4.356644e+001
1.552440e+003;4.354807e+001
1.554369e+003;4.351100e+001
1.556297e+003;4.345597e+001
1.558226e+003;4.331113e+001
1.560154e+003;4.334908e+001
1.562083e+003;4.352739e+001
1.564011e+003;4.357837e+001
1.565940e+003;4.358049e+001
1.567868e+003;4.355410e+001
1.569797e+003;4.352670e+001
1.571725e+003;4.356789e+001
1.573654e+003;4.354527e+001
1.575582e+003;4.343799e+001
1.577511e+003;4.348188e+001
1.579439e+003;4.356742e+001
1.581368e+003;4.356941e+001
1.583296e+003;4.356635e+001
1.585225e+003;4.356040e+001
1.587153e+003;4.355510e+001
1.589082e+003;4.354543e+001
1.591010e+003;4.353983e+001
1.592939e+003;4.352956e+001
1.594867e+003;4.352060e+001
1.596796e+003;4.351335e+001
1.598724e+003;4.350573e+001
1.600653e+003;4.349139e+001
1.602581e+003;4.347798e+001
1.604510e+003;4.346052e+001
1.606438e+003;4.343436e+001
1.608367e+003;4.339876e+001
1.610295e+003;4.337250e+001
1.612224e+003;4.335022e+001
1.614152e+003;4.327701e+001
1.616081e+003;4.311847e+001
1.618009e+003;4.306837e+001
1.619938e+003;4.310086e+001
1.621866e+003;4.312045e+001
1.623795e+003;4.317722e+001
1.625723e+003;4.324964e+001
1.627652e+003;4.327846e+001
1.629580e+003;4.330119e+001
1.631509e+003;4.331428e+001
1.633437e+003;4.325102e+001
1.635366e+003;4.317016e+001
1.637294e+003;4.323107e+001
1.639223e+003;4.330065e+001
1.641151e+003;4.330949e+001
1.643080e+003;4.329315e+001
1.645008e+003;4.321202e+001
1.646937e+003;4.318541e+001
1.648865e+003;4.324258e+001
1.650794e+003;4.314810e+001
1.652722e+003;4.296630e+001
1.654651e+003;4.308976e+001
1.656579e+003;4.324757e+001
1.658508e+003;4.326762e+001
1.660436e+003;4.324450e+001
1.662365e+003;4.320921e+001
1.664293e+003;4.322206e+001
1.666222e+003;4.322837e+001
1.668150e+003;4.316990e+001
1.670079e+003;4.314812e+001
1.672007e+003;4.317642e+001
1.673936e+003;4.314658e+001
1.675864e+003;4.312974e+001
1.677793e+003;4.317918e+001
1.679721e+003;4.317397e+001
1.681650e+003;4.312090e+001
1.683578e+003;4.297371e+001
1.685507e+003;4.299280e+001
1.687435e+003;4.312167e+001
1.689364e+003;4.314562e+001
1.691292e+003;4.315035e+001
1.693221e+003;4.310653e+001
1.695149e+003;4.297311e+001
1.697078e+003;4.297919e+001
1.699006e+003;4.295119e+001
1.700935e+003;4.293023e+001
1.702863e+003;4.304293e+001
1.704792e+003;4.303965e+001
1.706720e+003;4.304046e+001
1.708649e+003;4.304560e+001
1.710577e+003;4.304127e+001
1.712505e+003;4.300432e+001
1.714434e+003;4.293910e+001
1.716363e+003;4.283340e+001
1.718291e+003;4.282088e+001
1.720219e+003;4.289827e+001
1.722148e+003;4.290532e+001
1.724077e+003;4.287267e+001
1.726005e+003;4.284386e+001
1.727933e+003;4.279989e+001
1.729862e+003;4.274959e+001
1.731791e+003;4.265247e+001
1.733719e+003;4.253856e+001
1.735647e+003;4.260105e+001
1.737576e+003;4.267444e+001
1.739505e+003;4.266972e+001
1.741433e+003;4.271801e+001
1.743361e+003;4.276489e+001
1.745290e+003;4.279959e+001
1.747219e+003;4.281121e+001
1.749147e+003;4.280298e+001
1.751075e+003;4.279506e+001
1.753004e+003;4.284820e+001
1.754932e+003;4.287039e+001
1.756861e+003;4.285983e+001
1.758789e+003;4.286767e+001
1.760718e+003;4.284510e+001
1.762646e+003;4.284090e+001
1.764575e+003;4.286510e+001
1.766503e+003;4.284174e+001
1.768432e+003;4.281749e+001
1.770360e+003;4.278834e+001
1.772289e+003;4.274300e+001
1.774217e+003;4.278445e+001
1.776146e+003;4.282192e+001
1.778074e+003;4.281847e+001
1.780003e+003;4.280473e+001
1.781931e+003;4.279957e+001
1.783860e+003;4.278825e+001
1.785788e+003;4.278249e+001
1.787717e+003;4.278765e+001
1.789645e+003;4.276057e+001
1.791574e+003;4.271235e+001
1.793502e+003;4.271567e+001
1.795431e+003;4.274761e+001
1.797359e+003;4.274156e+001
1.799288e+003;4.272414e+001
1.801216e+003;4.271206e+001
1.803145e+003;4.271812e+001
1.805073e+003;4.271638e+001
1.807002e+003;4.270789e+001
1.808930e+003;4.269047e+001
1.810859e+003;4.267788e+001
1.812787e+003;4.267231e+001
1.814716e+003;4.266737e+001
1.816644e+003;4.265257e+001
1.818573e+003;4.264264e+001
1.820501e+003;4.262936e+001
1.822430e+003;4.261144e+001
1.824358e+003;4.257864e+001
1.826287e+003;4.256715e+001
1.828215e+003;4.254511e+001
1.830144e+003;4.251923e+001
1.832072e+003;4.252491e+001
1.834001e+003;4.251944e+001
1.835929e+003;4.249812e+001
1.837858e+003;4.247955e+001
1.839786e+003;4.246151e+001
1.841715e+003;4.242231e+001
1.843643e+003;4.235978e+001
1.845572e+003;4.235797e+001
1.847500e+003;4.236703e+001
1.849429e+003;4.235093e+001
1.851357e+003;4.233208e+001
1.853286e+003;4.230861e+001
1.855214e+003;4.228439e+001
1.857143e+003;4.225994e+001
1.859071e+003;4.223538e+001
1.861000e+003;4.221070e+001
1.862928e+003;4.218711e+001
1.864857e+003;4.215936e+001
1.866785e+003;4.211815e+001
1.868714e+003;4.207796e+001
1.870642e+003;4.207061e+001
1.872571e+003;4.206472e+001
1.874499e+003;4.204274e+001
1.876428e+003;4.201933e+001
1.878356e+003;4.199481e+001
1.880285e+003;4.197192e+001
1.882213e+003;4.194830e+001
1.884142e+003;4.192500e+001
1.886070e+003;4.190176e+001
1.887999e+003;4.187197e+001
1.889927e+003;4.184487e+001
1.891856e+003;4.183273e+001
1.893784e+003;4.181081e+001
1.895713e+003;4.178840e+001
1.897641e+003;4.176952e+001
1.899570e+003;4.174996e+001
1.901498e+003;4.172735e+001
1.903427e+003;4.170628e+001
1.905355e+003;4.168470e+001
1.907284e+003;4.166211e+001
1.909212e+003;4.163789e+001
1.911141e+003;4.162016e+001
1.913069e+003;4.160102e+001
1.914998e+003;4.157734e+001
1.916926e+003;4.154111e+001
1.918855e+003;4.152097e+001
1.920783e+003;4.151115e+001
1.922712e+003;4.148850e+001
1.924640e+003;4.147200e+001
1.926569e+003;4.145507e+001
1.928497e+003;4.143452e+001
1.930426e+003;4.141309e+001
1.932354e+003;4.139128e+001
1.934283e+003;4.137014e+001
1.936211e+003;4.134858e+001
1.938140e+003;4.132697e+001
1.940068e+003;4.130150e+001
1.941997e+003;4.127158e+001
1.943925e+003;4.125243e+001
1.945854e+003;4.123601e+001
1.947782e+003;4.121514e+001
1.949711e+003;4.119315e+001
1.951639e+003;4.117102e+001
1.953568e+003;4.114859e+001
1.955496e+003;4.112340e+001
1.957425e+003;4.109276e+001
1.959353e+003;4.106669e+001
1.961282e+003;4.105149e+001
1.963210e+003;4.103085e+001
1.965139e+003;4.100635e+001
1.967067e+003;4.098008e+001
1.968996e+003;4.096014e+001
1.970924e+003;4.093830e+001
1.972853e+003;4.091427e+001
1.974781e+003;4.088975e+001
1.976710e+003;4.086604e+001
1.978638e+003;4.084066e+001
1.980567e+003;4.081647e+001
1.982495e+003;4.079142e+001
1.984424e+003;4.076679e+001
1.986352e+003;4.074079e+001
1.988281e+003;4.071487e+001
1.990209e+003;4.068594e+001
1.992138e+003;4.065897e+001
1.994066e+003;4.063746e+001
1.995995e+003;4.061378e+001
1.997923e+003;4.058784e+001
1.999852e+003;4.056285e+001
2.001780e+003;4.053715e+001
2.003709e+003;4.051194e+001
2.005637e+003;4.048608e+001
2.007566e+003;4.046063e+001
2.009494e+003;4.043467e+001
2.011423e+003;4.040973e+001
2.013351e+003;4.038406e+001
2.015280e+003;4.035689e+001
2.017208e+003;4.033002e+001
2.019137e+003;4.030745e+001
2.021065e+003;4.028307e+001
2.022994e+003;4.025863e+001
2.024922e+003;4.023370e+001
2.026851e+003;4.020747e+001
2.028779e+003;4.018094e+001
2.030708e+003;4.015869e+001
2.032636e+003;4.013517e+001
2.034565e+003;4.011152e+001
2.036493e+003;4.008669e+001
2.038422e+003;4.006278e+001
2.040350e+003;4.003875e+001
2.042279e+003;4.001556e+001
2.044207e+003;3.999185e+001
2.046135e+003;3.996965e+001
2.048064e+003;3.994651e+001
2.049992e+003;3.992330e+001
2.051921e+003;3.990087e+001
2.053850e+003;3.987908e+001
2.055778e+003;3.985656e+001
2.057707e+003;3.983469e+001
2.059635e+003;3.981176e+001
2.061563e+003;3.979087e+001
2.063492e+003;3.976790e+001
2.065420e+003;3.974614e+001
2.067349e+003;3.972571e+001
2.069278e+003;3.970484e+001
2.071206e+003;3.968264e+001
2.073135e+003;3.966103e+001
2.075063e+003;3.964020e+001
2.076991e+003;3.961814e+001
2.078920e+003;3.959709e+001
2.080848e+003;3.957522e+001
2.082777e+003;3.955322e+001
2.084706e+003;3.953232e+001
2.086634e+003;3.950950e+001
2.088563e+003;3.948935e+001
2.090491e+003;3.946626e+001
2.092419e+003;3.944550e+001
2.094348e+003;3.942259e+001
2.096276e+003;3.940378e+001
2.098205e+003;3.938053e+001
2.100134e+003;3.936026e+001
2.102062e+003;3.933787e+001
2.103990e+003;3.931574e+001
2.105919e+003;3.929430e+001
2.107847e+003;3.927210e+001
2.109776e+003;3.925109e+001
2.111704e+003;3.922882e+001
2.113633e+003;3.920824e+001
2.115562e+003;3.918480e+001
2.117490e+003;3.916589e+001
2.119418e+003;3.914302e+001
2.121347e+003;3.912262e+001
2.123275e+003;3.910125e+001
2.125204e+003;3.908138e+001
2.127132e+003;3.905894e+001
2.129061e+003;3.903891e+001
2.130990e+003;3.901765e+001
2.132918e+003;3.899637e+001
2.134846e+003;3.897548e+001
2.136775e+003;3.895356e+001
2.138703e+003;3.893279e+001
2.140632e+003;3.891210e+001
2.142560e+003;3.889138e+001
2.144489e+003;3.886868e+001
2.146417e+003;3.884596e+001
2.148346e+003;3.882217e+001
2.150274e+003;3.879892e+001
2.152203e+003;3.877649e+001
2.154131e+003;3.875386e+001
2.156060e+003;3.873185e+001
2.157988e+003;3.870934e+001
2.159917e+003;3.868647e+001
2.161845e+003;3.866377e+001
2.163774e+003;3.864072e+001
2.165702e+003;3.861823e+001
2.167631e+003;3.859641e+001
2.169559e+003;3.857327e+001
2.171488e+003;3.855057e+001
2.173416e+003;3.852899e+001
2.175345e+003;3.850606e+001
2.177273e+003;3.848379e+001
2.179202e+003;3.846217e+001
2.181130e+003;3.843943e+001
2.183059e+003;3.841763e+001
2.184987e+003;3.839645e+001
2.186916e+003;3.837385e+001
2.188844e+003;3.835292e+001
2.190773e+003;3.833188e+001
2.192701e+003;3.831006e+001
2.194630e+003;3.828952e+001
2.196558e+003;3.826808e+001
2.198487e+003;3.824533e+001
2.200415e+003;3.822506e+001
2.202344e+003;3.820398e+001
2.204272e+003;3.818167e+001
2.206201e+003;3.816082e+001
2.208129e+003;3.813946e+001
2.210058e+003;3.811731e+001
2.211986e+003;3.809674e+001
2.213915e+003;3.807501e+001
2.215843e+003;3.805335e+001
2.217772e+003;3.803196e+001
2.219700e+003;3.800917e+001
2.221629e+003;3.798680e+001
2.223557e+003;3.796614e+001
2.225486e+003;3.794323e+001
2.227414e+003;3.792077e+001
2.229343e+003;3.789951e+001
2.231271e+003;3.787680e+001
2.233200e+003;3.785455e+001
2.235128e+003;3.783366e+001
2.237057e+003;3.781060e+001
2.238985e+003;3.778859e+001
2.240914e+003;3.776660e+001
2.242842e+003;3.774375e+001
2.244771e+003;3.772176e+001
2.246699e+003;3.769958e+001
2.248628e+003;3.767603e+001
2.250556e+003;3.765436e+001
2.252485e+003;3.763162e+001
2.254413e+003;3.760824e+001
2.256342e+003;3.758603e+001
2.258270e+003;3.756328e+001
2.260199e+003;3.753931e+001
2.262127e+003;3.751719e+001
2.264056e+003;3.749401e+001
2.265984e+003;3.747067e+001
2.267913e+003;3.744778e+001
2.269841e+003;3.742370e+001
2.271770e+003;3.740019e+001
2.273698e+003;3.737778e+001
2.275627e+003;3.735294e+001
2.277555e+003;3.732943e+001
2.279484e+003;3.730654e+001
2.281412e+003;3.728148e+001
2.283341e+003;3.725712e+001
2.285269e+003;3.723382e+001
2.287198e+003;3.720755e+001
2.289126e+003;3.718223e+001
2.291055e+003;3.715717e+001
2.292983e+003;3.713083e+001
2.294912e+003;3.710534e+001
2.296840e+003;3.707981e+001
2.298769e+003;3.705279e+001
2.300697e+003;3.702748e+001
2.302626e+003;3.700061e+001
2.304554e+003;3.697245e+001
2.306483e+003;3.694625e+001
2.308411e+003;3.691845e+001
2.310340e+003;3.688788e+001
2.312268e+003;3.686002e+001
2.314197e+003;3.682994e+001
2.316125e+003;3.679844e+001
2.318054e+003;3.676854e+001
2.319982e+003;3.673726e+001
2.321911e+003;3.670415e+001
2.323839e+003;3.667344e+001
2.325768e+003;3.664164e+001
2.327696e+003;3.661020e+001
2.329625e+003;3.658055e+001
2.331553e+003;3.655037e+001
2.333482e+003;3.652277e+001
2.335410e+003;3.649872e+001
2.337339e+003;3.647362e+001
2.339267e+003;3.645162e+001
2.341196e+003;3.643350e+001
2.343124e+003;3.641819e+001
2.345053e+003;3.640853e+001
2.346981e+003;3.640345e+001
2.348910e+003;3.638681e+001
2.350838e+003;3.634972e+001
2.352767e+003;3.630138e+001
2.354695e+003;3.625255e+001
2.356624e+003;3.620984e+001
2.358552e+003;3.617286e+001
2.360481e+003;3.613946e+001
2.362409e+003;3.611525e+001
2.364338e+003;3.609624e+001
2.366266e+003;3.608099e+001
2.368195e+003;3.607221e+001
2.370123e+003;3.606587e+001
2.372052e+003;3.605822e+001
2.373980e+003;3.605275e+001
2.375908e+003;3.604435e+001
2.377837e+003;3.603287e+001
2.379766e+003;3.602122e+001
2.381694e+003;3.600627e+001
2.383623e+003;3.598893e+001
2.385551e+003;3.597295e+001
2.387479e+003;3.595281e+001
2.389408e+003;3.593212e+001
2.391336e+003;3.591353e+001
2.393265e+003;3.589141e+001
2.395194e+003;3.586784e+001
2.397122e+003;3.584663e+001
2.399051e+003;3.582159e+001
2.400979e+003;3.579613e+001
2.402907e+003;3.577296e+001
2.404836e+003;3.574767e+001
2.406764e+003;3.572249e+001
2.408693e+003;3.569940e+001
2.410622e+003;3.567311e+001
2.412550e+003;3.564823e+001
2.414479e+003;3.562434e+001
2.416407e+003;3.559752e+001
2.418335e+003;3.557256e+001
2.420264e+003;3.554929e+001
2.422192e+003;3.552163e+001
2.424121e+003;3.549618e+001
2.426050e+003;3.547197e+001
2.427978e+003;3.544502e+001
2.429906e+003;3.541984e+001
2.431835e+003;3.539587e+001
2.433763e+003;3.536853e+001
2.435692e+003;3.534370e+001
2.437620e+003;3.531886e+001
2.439549e+003;3.529198e+001
2.441478e+003;3.526754e+001
2.443406e+003;3.524252e+001
2.445334e+003;3.521494e+001
2.447263e+003;3.519085e+001
2.449191e+003;3.516541e+001
2.451120e+003;3.513759e+001
2.453048e+003;3.511284e+001
2.454977e+003;3.508809e+001
2.456906e+003;3.506048e+001
2.458834e+003;3.503604e+001
2.460762e+003;3.501028e+001
2.462691e+003;3.498312e+001
2.464619e+003;3.495860e+001
2.466548e+003;3.493283e+001
2.468476e+003;3.490558e+001
2.470405e+003;3.488127e+001
2.472333e+003;3.485427e+001
2.474262e+003;3.482695e+001
2.476190e+003;3.480281e+001
2.478119e+003;3.477652e+001
2.480047e+003;3.474895e+001
2.481976e+003;3.472474e+001
2.483904e+003;3.469766e+001
2.485833e+003;3.467028e+001
2.487761e+003;3.464592e+001
2.489690e+003;3.461917e+001
2.491618e+003;3.459168e+001
2.493547e+003;3.456698e+001
2.495475e+003;3.453947e+001
2.497404e+003;3.451274e+001
2.499332e+003;3.448742e+001
2.501261e+003;3.445947e+001
2.503189e+003;3.443295e+001
2.505118e+003;3.440886e+001
2.507046e+003;3.438044e+001
2.508975e+003;3.435411e+001
2.510903e+003;3.432976e+001
2.512832e+003;3.430135e+001
2.514760e+003;3.427432e+001
2.516689e+003;3.425004e+001
2.518617e+003;3.422189e+001
2.520546e+003;3.419553e+001
2.522474e+003;3.417036e+001
2.524403e+003;3.414211e+001
2.526331e+003;3.411574e+001
2.528260e+003;3.409057e+001
2.530188e+003;3.406142e+001
2.532117e+003;3.403563e+001
2.534045e+003;3.401002e+001
2.535974e+003;3.398062e+001
2.537902e+003;3.395463e+001
2.539831e+003;3.392954e+001
2.541759e+003;3.389996e+001
2.543688e+003;3.387392e+001
2.545616e+003;3.384811e+001
2.547545e+003;3.381869e+001
2.549473e+003;3.379237e+001
2.551402e+003;3.376672e+001
2.553330e+003;3.373756e+001
2.555259e+003;3.371185e+001
2.557187e+003;3.368533e+001
2.559116e+003;3.365638e+001
2.561044e+003;3.363100e+001
2.562973e+003;3.360429e+001
2.564901e+003;3.357446e+001
2.566830e+003;3.354959e+001
2.568758e+003;3.352288e+001
2.570687e+003;3.349306e+001
2.572615e+003;3.346774e+001
2.574544e+003;3.344157e+001
2.576472e+003;3.341198e+001
2.578401e+003;3.338682e+001
2.580329e+003;3.336024e+001
2.582258e+003;3.333119e+001
2.584186e+003;3.330576e+001
2.586115e+003;3.327860e+001
2.588043e+003;3.324964e+001
2.589972e+003;3.322512e+001
2.591900e+003;3.319743e+001
2.593829e+003;3.316835e+001
2.595757e+003;3.314325e+001
2.597686e+003;3.311557e+001
2.599614e+003;3.308628e+001
2.601543e+003;3.306210e+001
2.603471e+003;3.303442e+001
2.605400e+003;3.300516e+001
2.607328e+003;3.298028e+001
2.609257e+003;3.295296e+001
2.611185e+003;3.292379e+001
2.613114e+003;3.289906e+001
2.615042e+003;3.287113e+001
2.616971e+003;3.284246e+001
2.618899e+003;3.281717e+001
2.620828e+003;3.278889e+001
2.622756e+003;3.276035e+001
2.624685e+003;3.273579e+001
2.626613e+003;3.270710e+001
2.628542e+003;3.267826e+001
2.630470e+003;3.265292e+001
2.632399e+003;3.262427e+001
2.634327e+003;3.259569e+001
2.636256e+003;3.257127e+001
2.638184e+003;3.254246e+001
2.640113e+003;3.251373e+001
2.642041e+003;3.248859e+001
2.643970e+003;3.246030e+001
2.645898e+003;3.243182e+001
2.647827e+003;3.240664e+001
2.649755e+003;3.237777e+001
2.651684e+003;3.234993e+001
2.653612e+003;3.232448e+001
2.655541e+003;3.229509e+001
2.657469e+003;3.226692e+001
2.659398e+003;3.224192e+001
2.661326e+003;3.221225e+001
2.663255e+003;3.218433e+001
2.665183e+003;3.215922e+001
2.667112e+003;3.212982e+001
2.669040e+003;3.210131e+001
2.670969e+003;3.207615e+001
2.672897e+003;3.204684e+001
2.674826e+003;3.201884e+001
2.676754e+003;3.199319e+001
2.678683e+003;3.196399e+001
2.680611e+003;3.193629e+001
2.682540e+003;3.191113e+001
2.684468e+003;3.188135e+001
2.686397e+003;3.185383e+001
2.688325e+003;3.182807e+001
2.690254e+003;3.179789e+001
2.692182e+003;3.177028e+001
2.694111e+003;3.174514e+001
2.696039e+003;3.171474e+001
2.697968e+003;3.168699e+001
2.699896e+003;3.166127e+001
2.701825e+003;3.163122e+001
2.703753e+003;3.160301e+001
2.705682e+003;3.157722e+001
2.707610e+003;3.154708e+001
2.709539e+003;3.151950e+001
2.711467e+003;3.149312e+001
2.713396e+003;3.146262e+001
2.715324e+003;3.143481e+001
2.717253e+003;3.140842e+001
2.719181e+003;3.137778e+001
2.721110e+003;3.135073e+001
2.723038e+003;3.132461e+001
2.724967e+003;3.129399e+001
2.726895e+003;3.126658e+001
2.728823e+003;3.124075e+001
2.730752e+003;3.120997e+001
2.732681e+003;3.118270e+001
2.734609e+003;3.115659e+001
2.736538e+003;3.112636e+001
2.738466e+003;3.109926e+001
2.740395e+003;3.107336e+001
2.742323e+003;3.104305e+001
2.744251e+003;3.101635e+001
2.746180e+003;3.098966e+001
2.748109e+003;3.095897e+001
2.750037e+003;3.093218e+001
2.751966e+003;3.090571e+001
2.753894e+003;3.087472e+001
2.755823e+003;3.084842e+001
2.757751e+003;3.082204e+001
2.759679e+003;3.079144e+001
2.761608e+003;3.076453e+001
2.763537e+003;3.073809e+001
2.765465e+003;3.070722e+001
2.767394e+003;3.068036e+001
2.769322e+003;3.065349e+001
2.771250e+003;3.062217e+001
2.773179e+003;3.059352e+001
2.775107e+003;3.056620e+001
2.777036e+003;3.053629e+001
2.778965e+003;3.051057e+001
2.780893e+003;3.048344e+001
2.782822e+003;3.045235e+001
2.784750e+003;3.042532e+001
2.786678e+003;3.039781e+001
2.788607e+003;3.036592e+001
2.790535e+003;3.033896e+001
2.792464e+003;3.031175e+001
2.794393e+003;3.027984e+001
2.796321e+003;3.025227e+001
2.798250e+003;3.022569e+001
2.800178e+003;3.019444e+001
2.802106e+003;3.016676e+001
2.804035e+003;3.013898e+001
2.805963e+003;3.010792e+001
2.807892e+003;3.007993e+001
2.809821e+003;3.005179e+001
2.811749e+003;3.002030e+001
2.813677e+003;2.999271e+001
2.815606e+003;2.996360e+001
2.817534e+003;2.993097e+001
2.819463e+003;2.990233e+001
2.821391e+003;2.987247e+001
2.823320e+003;2.983841e+001
2.825249e+003;2.981042e+001
2.827177e+003;2.978145e+001
2.829105e+003;2.974771e+001
2.831034e+003;2.971701e+001
2.832962e+003;2.968536e+001
2.834891e+003;2.964903e+001
2.836819e+003;2.961560e+001
2.838748e+003;2.957950e+001
2.840677e+003;2.953851e+001
2.842605e+003;2.949905e+001
2.844533e+003;2.945658e+001
2.846462e+003;2.940966e+001
2.848390e+003;2.936760e+001
2.850319e+003;2.932500e+001
2.852247e+003;2.927989e+001
2.854176e+003;2.924176e+001
2.856104e+003;2.920818e+001
2.858033e+003;2.917519e+001
2.859961e+003;2.914919e+001
2.861890e+003;2.912418e+001
2.863818e+003;2.909569e+001
2.865747e+003;2.906904e+001
2.867675e+003;2.904050e+001
2.869604e+003;2.900686e+001
2.871532e+003;2.897613e+001
2.873461e+003;2.894573e+001
2.875389e+003;2.891553e+001
2.877318e+003;2.889147e+001
2.879246e+003;2.886739e+001
2.881175e+003;2.883953e+001
2.883103e+003;2.881454e+001
2.885032e+003;2.878617e+001
2.886960e+003;2.875303e+001
2.888889e+003;2.872284e+001
2.890817e+003;2.869081e+001
2.892746e+003;2.865388e+001
2.894674e+003;2.862035e+001
2.896603e+003;2.858564e+001
2.898531e+003;2.854741e+001
2.900460e+003;2.851178e+001
2.902388e+003;2.847494e+001
2.904317e+003;2.843454e+001
2.906245e+003;2.839721e+001
2.908174e+003;2.835839e+001
2.910102e+003;2.831640e+001
2.912031e+003;2.827687e+001
2.913959e+003;2.823549e+001
2.915888e+003;2.819051e+001
2.917816e+003;2.814940e+001
2.919745e+003;2.810664e+001
2.921673e+003;2.806135e+001
2.923602e+003;2.802310e+001
2.925530e+003;2.798914e+001
2.927459e+003;2.795684e+001
2.929387e+003;2.793325e+001
2.931316e+003;2.791215e+001
2.933244e+003;2.789069e+001
2.935173e+003;2.787475e+001
2.937101e+003;2.785899e+001
2.939030e+003;2.784037e+001
2.940958e+003;2.782474e+001
2.942887e+003;2.780582e+001
2.944815e+003;2.778071e+001
2.946744e+003;2.775520e+001
2.948672e+003;2.772456e+001
2.950601e+003;2.768548e+001
2.952529e+003;2.764585e+001
2.954458e+003;2.760286e+001
2.956386e+003;2.755470e+001
2.958315e+003;2.750984e+001
2.960243e+003;2.746743e+001
2.962172e+003;2.742629e+001
2.964100e+003;2.739831e+001
2.966029e+003;2.738337e+001
2.967957e+003;2.737930e+001
2.969886e+003;2.738695e+001
2.971814e+003;2.739382e+001
2.973743e+003;2.739225e+001
2.975671e+003;2.738938e+001
2.977600e+003;2.738090e+001
2.979528e+003;2.736608e+001
2.981457e+003;2.735284e+001
2.983385e+003;2.733690e+001
2.985314e+003;2.731458e+001
2.987242e+003;2.729410e+001
2.989171e+003;2.727240e+001
2.991099e+003;2.724560e+001
2.993028e+003;2.722045e+001
2.994956e+003;2.719549e+001
2.996885e+003;2.716673e+001
2.998813e+003;2.714100e+001
3.000742e+003;2.711443e+001
3.002670e+003;2.708385e+001
3.004599e+003;2.705578e+001
3.006527e+003;2.702826e+001
3.008456e+003;2.699696e+001
3.010384e+003;2.696846e+001
3.012313e+003;2.693917e+001
3.014241e+003;2.690574e+001
3.016170e+003;2.687535e+001
3.018098e+003;2.684827e+001
3.020027e+003;2.681815e+001
3.021955e+003;2.678946e+001
3.023884e+003;2.676071e+001
3.025812e+003;2.672827e+001
3.027741e+003;2.669852e+001
3.029669e+003;2.666961e+001
3.031598e+003;2.663680e+001
3.033526e+003;2.660735e+001
3.035455e+003;2.657872e+001
3.037383e+003;2.654639e+001
3.039312e+003;2.651690e+001
3.041240e+003;2.648835e+001
3.043169e+003;2.645548e+001
3.045097e+003;2.642545e+001
3.047026e+003;2.639629e+001
3.048954e+003;2.636374e+001
3.050883e+003;2.633366e+001
3.052811e+003;2.630452e+001
3.054740e+003;2.627083e+001
3.056668e+003;2.623947e+001
3.058597e+003;2.621040e+001
3.060525e+003;2.617769e+001
3.062454e+003;2.614622e+001
3.064382e+003;2.611628e+001
3.066311e+003;2.608252e+001
3.068239e+003;2.605162e+001
3.070167e+003;2.602228e+001
3.072096e+003;2.598916e+001
3.074025e+003;2.595790e+001
3.075953e+003;2.592787e+001
3.077882e+003;2.589450e+001
3.079810e+003;2.586368e+001
3.081739e+003;2.583397e+001
3.083667e+003;2.579995e+001
3.085595e+003;2.576749e+001
3.087524e+003;2.573824e+001
3.089453e+003;2.570492e+001
3.091381e+003;2.567284e+001
3.093310e+003;2.564191e+001
3.095238e+003;2.560733e+001
3.097167e+003;2.557536e+001
3.099095e+003;2.554521e+001
3.101023e+003;2.551113e+001
3.102952e+003;2.547852e+001
3.104881e+003;2.544800e+001
3.106809e+003;2.541477e+001
3.108738e+003;2.538257e+001
3.110666e+003;2.535236e+001
3.112594e+003;2.531787e+001
3.114523e+003;2.528530e+001
3.116451e+003;2.525560e+001
3.118380e+003;2.522199e+001
3.120309e+003;2.518922e+001
3.122237e+003;2.515912e+001
3.124166e+003;2.512629e+001
3.126094e+003;2.509427e+001
3.128022e+003;2.506470e+001
3.129951e+003;2.503172e+001
3.131879e+003;2.499850e+001
3.133808e+003;2.496894e+001
3.135737e+003;2.493632e+001
3.137665e+003;2.490359e+001
3.139594e+003;2.487292e+001
3.141522e+003;2.483977e+001
3.143450e+003;2.480724e+001
3.145379e+003;2.477705e+001
3.147307e+003;2.474336e+001
3.149236e+003;2.471076e+001
3.151165e+003;2.468093e+001
3.153093e+003;2.464739e+001
3.155021e+003;2.461392e+001
3.156950e+003;2.458392e+001
3.158878e+003;2.455080e+001
3.160807e+003;2.451764e+001
3.162735e+003;2.448717e+001
3.164664e+003;2.445419e+001
3.166593e+003;2.442058e+001
3.168521e+003;2.438988e+001
3.170449e+003;2.435659e+001
3.172378e+003;2.432331e+001
3.174306e+003;2.429253e+001
3.176235e+003;2.425874e+001
3.178163e+003;2.422469e+001
3.180092e+003;2.419433e+001
3.182021e+003;2.416070e+001
3.183949e+003;2.412631e+001
3.185877e+003;2.409533e+001
3.187806e+003;2.406182e+001
3.189734e+003;2.402721e+001
3.191663e+003;2.399577e+001
3.193591e+003;2.396137e+001
3.195520e+003;2.392545e+001
3.197448e+003;2.389270e+001
3.199377e+003;2.385841e+001
3.201305e+003;2.382255e+001
3.203234e+003;2.378995e+001
3.205162e+003;2.375585e+001
3.207091e+003;2.372163e+001
3.209019e+003;2.369099e+001
3.210948e+003;2.365961e+001
3.212876e+003;2.362720e+001
3.214805e+003;2.359816e+001
3.216733e+003;2.356686e+001
3.218662e+003;2.353384e+001
3.220590e+003;2.350429e+001
3.222519e+003;2.347293e+001
3.224447e+003;2.343905e+001
3.226376e+003;2.340835e+001
3.228304e+003;2.337579e+001
3.230233e+003;2.334171e+001
3.232161e+003;2.331095e+001
3.234090e+003;2.327906e+001
3.236018e+003;2.324468e+001
3.237947e+003;2.321341e+001
3.239875e+003;2.318110e+001
3.241804e+003;2.314702e+001
3.243732e+003;2.311541e+001
3.245661e+003;2.308294e+001
3.247589e+003;2.304900e+001
3.249518e+003;2.301796e+001
3.251446e+003;2.298561e+001
3.253375e+003;2.295104e+001
3.255303e+003;2.292014e+001
3.257232e+003;2.288855e+001
3.259160e+003;2.285396e+001
3.261089e+003;2.282287e+001
3.263017e+003;2.279143e+001
3.264946e+003;2.275727e+001
3.266874e+003;2.272606e+001
3.268803e+003;2.269481e+001
3.270731e+003;2.266070e+001
3.272660e+003;2.262913e+001
3.274588e+003;2.259743e+001
3.276517e+003;2.256385e+001
3.278445e+003;2.253290e+001
3.280374e+003;2.250164e+001
3.282302e+003;2.246781e+001
3.284231e+003;2.243715e+001
3.286159e+003;2.240632e+001
3.288088e+003;2.237246e+001
3.290016e+003;2.234178e+001
3.291945e+003;2.231139e+001
3.293873e+003;2.227778e+001
3.295802e+003;2.224709e+001
3.297730e+003;2.221706e+001
3.299659e+003;2.218412e+001
3.301587e+003;2.215333e+001
3.303516e+003;2.212364e+001
3.305444e+003;2.209106e+001
3.307373e+003;2.206055e+001
3.309301e+003;2.203095e+001
3.311230e+003;2.199873e+001
3.313158e+003;2.196855e+001
3.315087e+003;2.193957e+001
3.317015e+003;2.190729e+001
3.318944e+003;2.187753e+001
3.320872e+003;2.184877e+001
3.322801e+003;2.181689e+001
3.324729e+003;2.178708e+001
3.326658e+003;2.175907e+001
3.328586e+003;2.172764e+001
3.330515e+003;2.169789e+001
3.332443e+003;2.166981e+001
3.334372e+003;2.163861e+001
3.336300e+003;2.160879e+001
3.338229e+003;2.158161e+001
3.340157e+003;2.155124e+001
3.342086e+003;2.152195e+001
3.344014e+003;2.149452e+001
3.345943e+003;2.146440e+001
3.347871e+003;2.143517e+001
3.349800e+003;2.140787e+001
3.351728e+003;2.137757e+001
3.353657e+003;2.134842e+001
3.355585e+003;2.132126e+001
3.357514e+003;2.129115e+001
3.359442e+003;2.126196e+001
3.361371e+003;2.123549e+001
3.363299e+003;2.120566e+001
3.365228e+003;2.117620e+001
3.367156e+003;2.114959e+001
3.369085e+003;2.112035e+001
3.371013e+003;2.109094e+001
3.372942e+003;2.106407e+001
3.374870e+003;2.103445e+001
3.376799e+003;2.100462e+001
3.378727e+003;2.097732e+001
3.380656e+003;2.094752e+001
3.382584e+003;2.091712e+001
3.384513e+003;2.088927e+001
3.386441e+003;2.085933e+001
3.388370e+003;2.082900e+001
3.390298e+003;2.080088e+001
3.392227e+003;2.076989e+001
3.394155e+003;2.073863e+001
3.396083e+003;2.070998e+001
3.398012e+003;2.067897e+001
3.399941e+003;2.064680e+001
3.401869e+003;2.061701e+001
3.403798e+003;2.058525e+001
3.405726e+003;2.055176e+001
3.407655e+003;2.052066e+001
3.409583e+003;2.048708e+001
3.411511e+003;2.045179e+001
3.413440e+003;2.041855e+001
3.415369e+003;2.038288e+001
3.417297e+003;2.034419e+001
3.419226e+003;2.030644e+001
3.421154e+003;2.026665e+001
3.423083e+003;2.022491e+001
3.425011e+003;2.018457e+001
3.426939e+003;2.014152e+001
3.428868e+003;2.009519e+001
3.430797e+003;2.005177e+001
3.432725e+003;2.000808e+001
3.434654e+003;1.996390e+001
3.436582e+003;1.992526e+001
3.438510e+003;1.988935e+001
3.440439e+003;1.985474e+001
3.442367e+003;1.982601e+001
3.444296e+003;1.979943e+001
3.446225e+003;1.977152e+001
3.448153e+003;1.974939e+001
3.450082e+003;1.972832e+001
3.452010e+003;1.970320e+001
3.453938e+003;1.967974e+001
3.455867e+003;1.965539e+001
3.457795e+003;1.962795e+001
3.459724e+003;1.960221e+001
3.461653e+003;1.957634e+001
3.463581e+003;1.954902e+001
3.465510e+003;1.952429e+001
3.467438e+003;1.949994e+001
3.469366e+003;1.947431e+001
3.471295e+003;1.945145e+001
3.473223e+003;1.943013e+001
3.475152e+003;1.940807e+001
3.477081e+003;1.938968e+001
3.479009e+003;1.937239e+001
3.480938e+003;1.935331e+001
3.482866e+003;1.933861e+001
3.484794e+003;1.932636e+001
3.486723e+003;1.931121e+001
3.488651e+003;1.929940e+001
3.490580e+003;1.928967e+001
3.492509e+003;1.927736e+001
3.494437e+003;1.926647e+001
3.496365e+003;1.925702e+001
3.498294e+003;1.924554e+001
3.500222e+003;1.923403e+001
3.502151e+003;1.922266e+001
3.504079e+003;1.921069e+001
3.506008e+003;1.920106e+001
3.507937e+003;1.918977e+001
3.509865e+003;1.917581e+001
3.511793e+003;1.916449e+001
3.513722e+003;1.915346e+001
3.515650e+003;1.913912e+001
3.517579e+003;1.912462e+001
3.519507e+003;1.911127e+001
3.521436e+003;1.909384e+001
3.523365e+003;1.907669e+001
3.525293e+003;1.906252e+001
3.527221e+003;1.904501e+001
3.529150e+003;1.902904e+001
3.531078e+003;1.901529e+001
3.533007e+003;1.899769e+001
3.534935e+003;1.897767e+001
3.536864e+003;1.896021e+001
3.538792e+003;1.894165e+001
3.540721e+003;1.892145e+001
3.542649e+003;1.890061e+001
3.544578e+003;1.887560e+001
3.546506e+003;1.885295e+001
3.548435e+003;1.883690e+001
3.550363e+003;1.881555e+001
3.552292e+003;1.879139e+001
3.554220e+003;1.877235e+001
3.556149e+003;1.875072e+001
3.558077e+003;1.872607e+001
3.560006e+003;1.870281e+001
3.561934e+003;1.867818e+001
3.563863e+003;1.864911e+001
3.565791e+003;1.861558e+001
3.567720e+003;1.858956e+001
3.569648e+003;1.857691e+001
3.571577e+003;1.856115e+001
3.573505e+003;1.853808e+001
3.575434e+003;1.851415e+001
3.577362e+003;1.849267e+001
3.579291e+003;1.847003e+001
3.581219e+003;1.844679e+001
3.583148e+003;1.842436e+001
3.585076e+003;1.839319e+001
3.587005e+003;1.835836e+001
3.588933e+003;1.834198e+001
3.590862e+003;1.833209e+001
3.592790e+003;1.830808e+001
3.594719e+003;1.828410e+001
3.596647e+003;1.826377e+001
3.598576e+003;1.824097e+001
3.600504e+003;1.821761e+001
3.602433e+003;1.819713e+001
3.604361e+003;1.817239e+001
3.606290e+003;1.814079e+001
3.608218e+003;1.810464e+001
3.610147e+003;1.808154e+001
3.612075e+003;1.806028e+001
3.614004e+003;1.804003e+001
3.615932e+003;1.801647e+001
3.617861e+003;1.798045e+001
3.619789e+003;1.795422e+001
3.621718e+003;1.794330e+001
3.623646e+003;1.792446e+001
3.625575e+003;1.789063e+001
3.627503e+003;1.783009e+001
3.629432e+003;1.779556e+001
3.631360e+003;1.780190e+001
3.633289e+003;1.778433e+001
3.635217e+003;1.776005e+001
3.637146e+003;1.773411e+001
3.639074e+003;1.770391e+001
3.641003e+003;1.767218e+001
3.642931e+003;1.763672e+001
3.644860e+003;1.758492e+001
3.646788e+003;1.751268e+001
3.648717e+003;1.745983e+001
3.650645e+003;1.746343e+001
3.652574e+003;1.748397e+001
3.654502e+003;1.746336e+001
3.656431e+003;1.743116e+001
3.658359e+003;1.741908e+001
3.660288e+003;1.739714e+001
3.662216e+003;1.736738e+001
3.664145e+003;1.733910e+001
3.666073e+003;1.730728e+001
3.668002e+003;1.725721e+001
3.669930e+003;1.720581e+001
3.671859e+003;1.719378e+001
3.673787e+003;1.715734e+001
3.675716e+003;1.711236e+001
3.677644e+003;1.711997e+001
3.679573e+003;1.711175e+001
3.681501e+003;1.709311e+001
3.683430e+003;1.706972e+001
3.685358e+003;1.703596e+001
3.687287e+003;1.697568e+001
3.689215e+003;1.694633e+001
3.691144e+003;1.694628e+001
3.693072e+003;1.693824e+001
3.695001e+003;1.692068e+001
3.696929e+003;1.689686e+001
3.698858e+003;1.687102e+001
3.700786e+003;1.683885e+001
3.702715e+003;1.681719e+001
3.704643e+003;1.680035e+001
3.706572e+003;1.677328e+001
3.708500e+003;1.673533e+001
3.710429e+003;1.669283e+001
3.712357e+003;1.666494e+001
3.714286e+003;1.666027e+001
3.716214e+003;1.664099e+001
3.718143e+003;1.660968e+001
3.720071e+003;1.657446e+001
3.722000e+003;1.653790e+001
3.723928e+003;1.650115e+001
3.725857e+003;1.646150e+001
3.727785e+003;1.642570e+001
3.729714e+003;1.637990e+001
3.731642e+003;1.631758e+001
3.733571e+003;1.627379e+001
3.735499e+003;1.623509e+001
3.737427e+003;1.623460e+001
3.739356e+003;1.625813e+001
3.741285e+003;1.626999e+001
3.743213e+003;1.624104e+001
3.745142e+003;1.625774e+001
3.747070e+003;1.630441e+001
3.748999e+003;1.628720e+001
3.750927e+003;1.627728e+001
3.752855e+003;1.629226e+001
3.754784e+003;1.631760e+001
3.756713e+003;1.630808e+001
3.758641e+003;1.629104e+001
3.760570e+003;1.627746e+001
3.762498e+003;1.626986e+001
3.764427e+003;1.624500e+001
3.766355e+003;1.622634e+001
3.768283e+003;1.620267e+001
3.770212e+003;1.618215e+001
3.772141e+003;1.617282e+001
3.774069e+003;1.615843e+001
3.775998e+003;1.613555e+001
3.777926e+003;1.610880e+001
3.779854e+003;1.608585e+001
3.781783e+003;1.607148e+001
3.783711e+003;1.604871e+001
3.785640e+003;1.602913e+001
3.787569e+003;1.600879e+001
3.789497e+003;1.598836e+001
3.791426e+003;1.596633e+001
3.793354e+003;1.594267e+001
3.795282e+003;1.591175e+001
3.797211e+003;1.589035e+001
3.799139e+003;1.585380e+001
3.801068e+003;1.580702e+001
3.802997e+003;1.580803e+001
3.804925e+003;1.579454e+001
3.806854e+003;1.575921e+001
3.808782e+003;1.575816e+001
3.810710e+003;1.574707e+001
3.812639e+003;1.572040e+001
3.814567e+003;1.566918e+001
3.816496e+003;1.564031e+001
3.818425e+003;1.563656e+001
3.820353e+003;1.560248e+001
3.822281e+003;1.558840e+001
3.824210e+003;1.558508e+001
3.826138e+003;1.556365e+001
3.828067e+003;1.554434e+001
3.829995e+003;1.551735e+001
3.831924e+003;1.549155e+001
3.833853e+003;1.546697e+001
3.835781e+003;1.542606e+001
3.837709e+003;1.538858e+001
3.839638e+003;1.538826e+001
3.841566e+003;1.538068e+001
3.843495e+003;1.536449e+001
3.845423e+003;1.534957e+001
3.847352e+003;1.533136e+001
3.849281e+003;1.529902e+001
3.851209e+003;1.523765e+001
3.853137e+003;1.517283e+001
3.855066e+003;1.518492e+001
3.856994e+003;1.521284e+001
3.858923e+003;1.520022e+001
3.860851e+003;1.517443e+001
3.862780e+003;1.514679e+001
3.864708e+003;1.512004e+001
3.866637e+003;1.510610e+001
3.868565e+003;1.507104e+001
3.870494e+003;1.504658e+001
3.872422e+003;1.504359e+001
3.874351e+003;1.502643e+001
3.876279e+003;1.501249e+001
3.878208e+003;1.498796e+001
3.880136e+003;1.496092e+001
3.882065e+003;1.494382e+001
3.883993e+003;1.491505e+001
3.885922e+003;1.488983e+001
3.887850e+003;1.488425e+001
3.889779e+003;1.485836e+001
3.891707e+003;1.483579e+001
3.893636e+003;1.482589e+001
3.895564e+003;1.480881e+001
3.897493e+003;1.478073e+001
3.899421e+003;1.474921e+001
3.901350e+003;1.472488e+001
3.903278e+003;1.470428e+001
3.905207e+003;1.469273e+001
3.907135e+003;1.468462e+001
3.909064e+003;1.466936e+001
3.910992e+003;1.464844e+001
3.912921e+003;1.462733e+001
3.914849e+003;1.460419e+001
3.916778e+003;1.457793e+001
3.918706e+003;1.455854e+001
3.920635e+003;1.454319e+001
3.922563e+003;1.452376e+001
3.924492e+003;1.450127e+001
3.926420e+003;1.448466e+001
3.928349e+003;1.446487e+001
3.930277e+003;1.444121e+001
3.932206e+003;1.442064e+001
3.934134e+003;1.440408e+001
3.936063e+003;1.438605e+001
3.937991e+003;1.436729e+001
3.939920e+003;1.434616e+001
3.941848e+003;1.432297e+001
3.943777e+003;1.430523e+001
3.945705e+003;1.428623e+001
3.947634e+003;1.426396e+001
3.949562e+003;1.424592e+001
3.951491e+003;1.422800e+001
3.953419e+003;1.420822e+001
3.955348e+003;1.418983e+001
3.957276e+003;1.417050e+001
3.959205e+003;1.414983e+001
3.961133e+003;1.413075e+001
3.963062e+003;1.411208e+001
3.964990e+003;1.409253e+001
3.966919e+003;1.407395e+001
3.968847e+003;1.405443e+001
3.970776e+003;1.403411e+001
3.972704e+003;1.401557e+001
3.974633e+003;1.399660e+001
3.976561e+003;1.397671e+001
3.978490e+003;1.395862e+001
3.980418e+003;1.393993e+001
3.982347e+003;1.392006e+001
3.984275e+003;1.390197e+001
3.986204e+003;1.388375e+001
3.988132e+003;1.386351e+001
3.990061e+003;1.384510e+001
3.991989e+003;1.382730e+001
3.993918e+003;1.380754e+001
3.995846e+003;1.378915e+001
3.997775e+003;1.377167e+001
3.999703e+003;1.375235e+001
