3.991989e+002;4.992439e+001
4.011274e+002;4.984641e+001
4.030559e+002;5.009254e+001
4.049844e+002;5.023029e+001
4.069129e+002;4.955331e+001
4.088414e+002;4.936682e+001
4.107699e+002;4.965371e+001
4.126984e+002;4.957141e+001
4.146269e+002;4.901593e+001
4.165554e+002;4.869761e+001
4.184839e+002;4.850577e+001
4.204124e+002;4.807700e+001
4.223409e+002;4.784980e+001
4.242694e+002;4.753704e+001
4.261979e+002;4.705664e+001
4.281264e+002;4.679261e+001
4.300549e+002;4.640594e+001
4.319834e+002;4.583614e+001
4.339119e+002;4.547721e+001
4.358404e+002;4.503988e+001
4.377689e+002;4.456124e+001
4.396974e+002;4.407921e+001
4.416259e+002;4.340219e+001
4.435544e+002;4.280148e+001
4.454829e+002;4.222388e+001
4.474114e+002;4.177874e+001
4.493399e+002;4.141429e+001
4.512684e+002;4.085087e+001
4.531969e+002;4.033922e+001
4.551254e+002;3.997813e+001
4.570539e+002;3.976803e+001
4.589824e+002;3.970520e+001
4.609109e+002;3.963334e+001
4.628394e+002;3.984666e+001
4.647679e+002;4.028274e+001
4.666964e+002;4.074651e+001
4.686248e+002;4.129890e+001
4.705533e+002;4.207052e+001
4.724818e+002;4.291435e+001
4.744103e+002;4.376228e+001
4.763388e+002;4.465952e+001
4.782673e+002;4.548832e+001
4.801958e+002;4.621349e+001
4.821243e+002;4.671365e+001
4.840528e+002;4.706359e+001
4.859813e+002;4.735567e+001
4.879098e+002;4.760690e+001
4.898383e+002;4.791665e+001
4.917668e+002;4.812537e+001
4.936953e+002;4.822995e+001
4.956238e+002;4.829515e+001
4.975523e+002;4.829840e+001
4.994808e+002;4.830856e+001
5.014093e+002;4.823035e+001
5.033378e+002;4.810122e+001
5.052663e+002;4.798821e+001
5.071948e+002;4.778597e+001
5.091233e+002;4.741590e+001
5.110518e+002;4.698918e+001
5.129803e+002;4.665834e+001
5.149088e+002;4.673981e+001
5.168373e+002;4.720164e+001
5.187657e+002;4.763206e+001
5.206943e+002;4.781752e+001
5.226227e+002;4.784755e+001
5.245513e+002;4.783426e+001
5.264797e+002;4.785461e+001
5.284083e+002;4.786863e+001
5.303367e+002;4.783716e+001
5.322653e+002;4.773625e+001
5.341937e+002;4.762841e+001
5.361223e+002;4.756062e+001
5.380507e+002;4.745867e+001
5.399792e+002;4.731634e+001
5.419077e+002;4.716925e+001
5.438362e+002;4.703323e+001
5.457647e+002;4.689612e+001
5.476932e+002;4.671890e+001
5.496217e+002;4.652082e+001
5.515502e+002;4.637835e+001
5.534787e+002;4.625098e+001
5.554072e+002;4.609048e+001
5.573357e+002;4.593890e+001
5.592642e+002;4.576343e+001
5.611927e+002;4.561391e+001
5.631212e+002;4.545040e+001
5.650497e+002;4.530418e+001
5.669782e+002;4.524604e+001
5.689067e+002;4.541782e+001
5.708352e+002;4.585039e+001
5.727637e+002;4.614840e+001
5.746922e+002;4.628250e+001
5.766207e+002;4.631409e+001
5.785492e+002;4.629195e+001
5.804777e+002;4.620564e+001
5.824062e+002;4.603879e+001
5.843347e+002;4.578083e+001
5.862632e+002;4.543195e+001
5.881917e+002;4.495919e+001
5.901202e+002;4.435820e+001
5.920486e+002;4.359345e+001
5.939772e+002;4.264434e+001
5.959056e+002;4.153831e+001
5.978342e+002;4.022226e+001
5.997626e+002;3.850533e+001
6.016912e+002;3.655396e+001
6.036196e+002;3.501001e+001
6.055482e+002;3.388794e+001
6.074766e+002;3.284532e+001
6.094052e+002;3.200653e+001
6.113336e+002;3.196188e+001
6.132621e+002;3.256777e+001
6.151906e+002;3.297933e+001
6.171191e+002;3.309801e+001
6.190476e+002;3.320462e+001
6.209761e+002;3.352889e+001
6.229046e+002;3.482546e+001
6.248331e+002;3.769063e+001
6.267616e+002;4.148516e+001
6.286901e+002;4.527454e+001
6.306186e+002;4.792376e+001
6.325471e+002;4.914951e+001
6.344756e+002;4.952604e+001
6.364041e+002;4.968904e+001
6.383326e+002;4.978448e+001
6.402611e+002;4.985501e+001
6.421896e+002;4.992726e+001
6.441181e+002;5.002087e+001
6.460466e+002;5.011614e+001
6.479751e+002;5.018225e+001
6.499036e+002;5.022460e+001
6.518321e+002;5.025996e+001
6.537606e+002;5.027667e+001
6.556891e+002;5.028725e+001
6.576176e+002;5.030085e+001
6.595461e+002;5.033880e+001
6.614745e+002;5.038353e+001
6.634031e+002;5.041913e+001
6.653315e+002;5.043776e+001
6.672601e+002;5.044178e+001
6.691885e+002;5.045214e+001
6.711171e+002;5.047394e+001
6.730455e+002;5.048557e+001
6.749741e+002;5.051005e+001
6.769025e+002;5.053575e+001
6.788311e+002;5.053179e+001
6.807595e+002;5.050343e+001
6.826880e+002;5.046462e+001
6.846165e+002;5.042201e+001
6.865450e+002;5.040375e+001
6.884735e+002;5.040744e+001
6.904020e+002;5.044523e+001
6.923305e+002;5.048324e+001
6.942590e+002;5.052559e+001
6.961875e+002;5.061339e+001
6.981160e+002;5.072846e+001
7.000445e+002;5.079052e+001
7.019730e+002;5.077541e+001
7.039015e+002;5.066966e+001
7.058300e+002;5.049331e+001
7.077585e+002;5.025747e+001
7.096870e+002;4.991623e+001
7.116155e+002;4.944496e+001
7.135440e+002;4.884913e+001
7.154725e+002;4.822080e+001
7.174010e+002;4.770018e+001
7.193295e+002;4.728258e+001
7.212580e+002;4.690495e+001
7.231865e+002;4.655728e+001
7.251150e+002;4.622745e+001
7.270435e+002;4.591076e+001
7.289720e+002;4.561625e+001
7.309005e+002;4.531283e+001
7.328290e+002;4.501907e+001
7.347574e+002;4.475234e+001
7.366860e+002;4.452051e+001
7.386144e+002;4.438560e+001
7.405430e+002;4.448306e+001
7.424714e+002;4.478239e+001
7.444000e+002;4.510540e+001
7.463284e+002;4.534556e+001
7.482570e+002;4.551342e+001
7.501854e+002;4.564222e+001
7.521140e+002;4.576196e+001
7.540424e+002;4.586491e+001
7.559709e+002;4.594843e+001
7.578994e+002;4.602010e+001
7.598279e+002;4.606516e+001
7.617564e+002;4.609191e+001
7.636849e+002;4.612451e+001
7.656134e+002;4.614707e+001
7.675419e+002;4.616299e+001
7.694704e+002;4.614553e+001
7.713989e+002;4.608586e+001
7.733274e+002;4.598830e+001
7.752559e+002;4.586288e+001
7.771844e+002;4.573219e+001
7.791129e+002;4.561261e+001
7.810414e+002;4.549520e+001
7.829699e+002;4.537346e+001
7.848984e+002;4.524960e+001
7.868269e+002;4.512324e+001
7.887554e+002;4.500931e+001
7.906839e+002;4.493455e+001
7.926124e+002;4.489448e+001
7.945409e+002;4.491679e+001
7.964694e+002;4.504008e+001
7.983979e+002;4.525576e+001
8.003264e+002;4.533343e+001
8.022549e+002;4.517654e+001
8.041833e+002;4.493706e+001
8.061119e+002;4.471192e+001
8.080403e+002;4.453523e+001
8.099689e+002;4.440678e+001
8.118973e+002;4.429760e+001
8.138259e+002;4.418436e+001
8.157543e+002;4.411157e+001
8.176829e+002;4.412497e+001
8.196113e+002;4.421884e+001
8.215399e+002;4.436842e+001
8.234683e+002;4.457182e+001
8.253969e+002;4.480883e+001
8.273253e+002;4.508432e+001
8.292538e+002;4.541155e+001
8.311823e+002;4.574387e+001
8.331108e+002;4.604056e+001
8.350393e+002;4.625839e+001
8.369678e+002;4.640203e+001
8.388963e+002;4.648181e+001
8.408248e+002;4.650107e+001
8.427533e+002;4.648607e+001
8.446818e+002;4.647012e+001
8.466103e+002;4.647614e+001
8.485388e+002;4.649279e+001
8.504673e+002;4.648723e+001
8.523958e+002;4.646267e+001
8.543243e+002;4.642426e+001
8.562528e+002;4.636763e+001
8.581813e+002;4.629323e+001
8.601098e+002;4.618935e+001
8.620383e+002;4.606649e+001
8.639668e+002;4.596590e+001
8.658953e+002;4.590222e+001
8.678238e+002;4.586369e+001
8.697523e+002;4.583397e+001
8.716808e+002;4.580339e+001
8.736093e+002;4.576939e+001
8.755378e+002;4.572740e+001
8.774662e+002;4.568272e+001
8.793948e+002;4.563555e+001
8.813232e+002;4.558368e+001
8.832518e+002;4.555334e+001
8.851802e+002;4.554097e+001
8.871088e+002;4.553017e+001
8.890372e+002;4.551524e+001
8.909658e+002;4.550213e+001
8.928942e+002;4.550459e+001
8.948227e+002;4.551309e+001
8.967512e+002;4.552904e+001
8.986797e+002;4.556858e+001
9.006082e+002;4.562992e+001
9.025367e+002;4.567880e+001
9.044652e+002;4.572522e+001
9.063937e+002;4.579552e+001
9.083222e+002;4.588304e+001
9.102507e+002;4.600585e+001
9.121792e+002;4.617123e+001
9.141077e+002;4.634122e+001
9.160362e+002;4.648579e+001
9.179647e+002;4.660455e+001
9.198932e+002;4.670251e+001
9.218217e+002;4.679200e+001
9.237502e+002;4.688353e+001
9.256786e+002;4.697376e+001
9.276072e+002;4.704608e+001
9.295356e+002;4.710165e+001
9.314642e+002;4.715432e+001
9.333926e+002;4.720235e+001
9.353212e+002;4.725161e+001
9.372496e+002;4.729483e+001
9.391782e+002;4.732812e+001
9.411066e+002;4.733782e+001
9.430352e+002;4.731951e+001
9.449636e+002;4.728300e+001
9.468922e+002;4.723581e+001
9.488206e+002;4.718887e+001
9.507491e+002;4.714217e+001
9.526776e+002;4.708923e+001
9.546061e+002;4.703510e+001
9.565346e+002;4.697965e+001
9.584631e+002;4.693166e+001
9.603916e+002;4.690447e+001
9.623201e+002;4.688803e+001
9.642486e+002;4.687375e+001
9.661771e+002;4.686588e+001
9.681056e+002;4.685663e+001
9.700341e+002;4.684637e+001
9.719626e+002;4.685234e+001
9.738911e+002;4.686971e+001
9.758196e+002;4.689608e+001
9.777481e+002;4.692419e+001
9.796766e+002;4.694083e+001
9.816051e+002;4.695211e+001
9.835336e+002;4.696216e+001
9.854621e+002;4.697133e+001
9.873906e+002;4.697575e+001
9.893191e+002;4.696609e+001
9.912476e+002;4.692588e+001
9.931761e+002;4.685384e+001
9.951046e+002;4.674453e+001
9.970331e+002;4.659778e+001
9.989615e+002;4.642291e+001
1.000890e+003;4.621586e+001
1.002819e+003;4.595480e+001
1.004747e+003;4.563143e+001
1.006676e+003;4.525291e+001
1.008604e+003;4.481243e+001
1.010533e+003;4.431516e+001
1.012461e+003;4.377090e+001
1.014390e+003;4.317442e+001
1.016318e+003;4.252387e+001
1.018247e+003;4.181615e+001
1.020175e+003;4.105187e+001
1.022104e+003;4.025503e+001
1.024032e+003;3.943106e+001
1.025961e+003;3.858356e+001
1.027889e+003;3.772604e+001
1.029818e+003;3.685987e+001
1.031746e+003;3.599018e+001
1.033675e+003;3.513241e+001
1.035603e+003;3.429395e+001
1.037531e+003;3.347678e+001
1.039460e+003;3.268279e+001
1.041389e+003;3.191059e+001
1.043317e+003;3.116284e+001
1.045245e+003;3.044579e+001
1.047174e+003;2.975996e+001
1.049103e+003;2.910794e+001
1.051031e+003;2.849521e+001
1.052959e+003;2.791840e+001
1.054888e+003;2.737552e+001
1.056817e+003;2.686440e+001
1.058745e+003;2.638533e+001
1.060673e+003;2.594610e+001
1.062602e+003;2.554593e+001
1.064531e+003;2.518226e+001
1.066459e+003;2.485748e+001
1.068387e+003;2.456003e+001
1.070316e+003;2.429296e+001
1.072245e+003;2.406430e+001
1.074173e+003;2.386456e+001
1.076101e+003;2.369674e+001
1.078030e+003;2.356558e+001
1.079958e+003;2.346395e+001
1.081887e+003;2.339359e+001
1.083815e+003;2.335765e+001
1.085744e+003;2.335048e+001
1.087672e+003;2.338202e+001
1.089601e+003;2.345929e+001
1.091529e+003;2.358392e+001
1.093458e+003;2.376826e+001
1.095386e+003;2.402322e+001
1.097315e+003;2.435633e+001
1.099243e+003;2.478890e+001
1.101172e+003;2.534029e+001
1.103100e+003;2.602121e+001
1.105029e+003;2.683731e+001
1.106957e+003;2.778270e+001
1.108886e+003;2.883904e+001
1.110814e+003;2.998804e+001
1.112743e+003;3.119957e+001
1.114671e+003;3.244478e+001
1.116600e+003;3.369588e+001
1.118528e+003;3.491277e+001
1.120457e+003;3.606079e+001
1.122385e+003;3.711749e+001
1.124314e+003;3.807237e+001
1.126242e+003;3.892966e+001
1.128171e+003;3.968157e+001
1.130099e+003;4.031810e+001
1.132028e+003;4.083737e+001
1.133956e+003;4.124417e+001
1.135885e+003;4.155480e+001
1.137813e+003;4.180048e+001
1.139742e+003;4.200080e+001
1.141670e+003;4.217091e+001
1.143599e+003;4.232402e+001
1.145527e+003;4.245049e+001
1.147456e+003;4.255235e+001
1.149384e+003;4.263958e+001
1.151313e+003;4.271699e+001
1.153241e+003;4.278765e+001
1.155170e+003;4.286159e+001
1.157098e+003;4.293090e+001
1.159027e+003;4.299317e+001
1.160955e+003;4.305023e+001
1.162884e+003;4.309891e+001
1.164812e+003;4.315331e+001
1.166741e+003;4.321390e+001
1.168669e+003;4.327587e+001
1.170598e+003;4.333958e+001
1.172526e+003;4.339995e+001
1.174455e+003;4.345181e+001
1.176383e+003;4.350853e+001
1.178312e+003;4.356274e+001
1.180240e+003;4.362670e+001
1.182169e+003;4.370915e+001
1.184097e+003;4.377126e+001
1.186026e+003;4.383506e+001
1.187954e+003;4.389825e+001
1.189883e+003;4.396361e+001
1.191811e+003;4.403448e+001
1.193740e+003;4.411401e+001
1.195668e+003;4.419114e+001
1.197597e+003;4.426617e+001
1.199525e+003;4.433432e+001
1.201454e+003;4.439851e+001
1.203382e+003;4.446895e+001
1.205311e+003;4.454419e+001
1.207239e+003;4.461708e+001
1.209168e+003;4.468926e+001
1.211096e+003;4.475325e+001
1.213025e+003;4.480977e+001
1.214953e+003;4.486494e+001
1.216882e+003;4.492115e+001
1.218810e+003;4.497573e+001
1.220739e+003;4.503018e+001
1.222667e+003;4.507681e+001
1.224596e+003;4.511659e+001
1.226524e+003;4.515662e+001
1.228453e+003;4.519963e+001
1.230381e+003;4.524910e+001
1.232310e+003;4.530259e+001
1.234238e+003;4.534808e+001
1.236167e+003;4.538716e+001
1.238095e+003;4.541805e+001
1.240024e+003;4.543975e+001
1.241952e+003;4.546295e+001
1.243881e+003;4.549030e+001
1.245809e+003;4.551211e+001
1.247738e+003;4.552947e+001
1.249666e+003;4.553989e+001
1.251595e+003;4.554241e+001
1.253523e+003;4.554948e+001
1.255452e+003;4.556463e+001
1.257380e+003;4.558337e+001
1.259309e+003;4.560738e+001
1.261237e+003;4.563221e+001
1.263166e+003;4.565508e+001
1.265094e+003;4.568306e+001
1.267023e+003;4.571801e+001
1.268951e+003;4.575665e+001
1.270880e+003;4.579554e+001
1.272808e+003;4.582417e+001
1.274737e+003;4.583846e+001
1.276665e+003;4.584412e+001
1.278594e+003;4.584518e+001
1.280522e+003;4.584521e+001
1.282451e+003;4.584633e+001
1.284379e+003;4.584456e+001
1.286308e+003;4.583542e+001
1.288236e+003;4.582188e+001
1.290165e+003;4.580745e+001
1.292093e+003;4.579692e+001
1.294022e+003;4.579268e+001
1.295950e+003;4.579138e+001
1.297879e+003;4.579101e+001
1.299807e+003;4.578934e+001
1.301736e+003;4.578622e+001
1.303664e+003;4.578583e+001
1.305593e+003;4.579263e+001
1.307521e+003;4.580547e+001
1.309450e+003;4.582139e+001
1.311378e+003;4.583533e+001
1.313307e+003;4.584600e+001
1.315235e+003;4.585656e+001
1.317164e+003;4.587196e+001
1.319092e+003;4.589278e+001
1.321021e+003;4.591681e+001
1.322949e+003;4.593904e+001
1.324878e+003;4.595554e+001
1.326806e+003;4.596881e+001
1.328735e+003;4.598147e+001
1.330663e+003;4.599463e+001
1.332592e+003;4.601131e+001
1.334520e+003;4.602618e+001
1.336449e+003;4.603228e+001
1.338377e+003;4.603287e+001
1.340306e+003;4.602851e+001
1.342234e+003;4.602099e+001
1.344163e+003;4.601619e+001
1.346091e+003;4.601089e+001
1.348020e+003;4.599990e+001
1.349948e+003;4.598378e+001
1.351877e+003;4.596010e+001
1.353805e+003;4.593370e+001
1.355734e+003;4.591186e+001
1.357662e+003;4.589130e+001
1.359591e+003;4.587204e+001
1.361519e+003;4.585504e+001
1.363448e+003;4.583045e+001
1.365376e+003;4.580076e+001
1.367305e+003;4.577858e+001
1.369233e+003;4.575920e+001
1.371161e+003;4.574576e+001
1.373090e+003;4.573561e+001
1.375019e+003;4.571724e+001
1.376947e+003;4.569800e+001
1.378875e+003;4.568123e+001
1.380804e+003;4.566533e+001
1.382733e+003;4.565799e+001
1.384661e+003;4.565449e+001
1.386589e+003;4.564673e+001
1.388518e+003;4.563490e+001
1.390447e+003;4.561895e+001
1.392375e+003;4.559851e+001
1.394303e+003;4.558449e+001
1.396232e+003;4.558186e+001
1.398161e+003;4.557755e+001
1.400089e+003;4.556824e+001
1.402017e+003;4.554921e+001
1.403946e+003;4.552811e+001
1.405875e+003;4.551163e+001
1.407803e+003;4.549430e+001
1.409731e+003;4.547910e+001
1.411660e+003;4.546138e+001
1.413589e+003;4.543103e+001
1.415517e+003;4.539837e+001
1.417445e+003;4.535595e+001
1.419374e+003;4.530614e+001
1.421302e+003;4.528823e+001
1.423231e+003;4.526461e+001
1.425159e+003;4.521874e+001
1.427088e+003;4.517082e+001
1.429016e+003;4.511766e+001
1.430945e+003;4.506348e+001
1.432873e+003;4.502025e+001
1.434802e+003;4.497270e+001
1.436730e+003;4.492492e+001
1.438659e+003;4.488302e+001
1.440587e+003;4.483405e+001
1.442516e+003;4.478991e+001
1.444444e+003;4.476310e+001
1.446373e+003;4.474393e+001
1.448301e+003;4.473500e+001
1.450230e+003;4.473359e+001
1.452158e+003;4.473190e+001
1.454087e+003;4.474651e+001
1.456015e+003;4.478170e+001
1.457944e+003;4.480521e+001
1.459872e+003;4.484119e+001
1.461801e+003;4.488807e+001
1.463729e+003;4.492780e+001
1.465658e+003;4.496698e+001
1.467586e+003;4.499915e+001
1.469515e+003;4.502916e+001
1.471443e+003;4.506622e+001
1.473372e+003;4.511507e+001
1.475300e+003;4.515137e+001
1.477229e+003;4.518053e+001
1.479157e+003;4.520195e+001
1.481086e+003;4.522292e+001
1.483014e+003;4.524960e+001
1.484943e+003;4.527127e+001
1.486871e+003;4.528997e+001
1.488800e+003;4.530746e+001
1.490728e+003;4.530793e+001
1.492657e+003;4.531417e+001
1.494585e+003;4.531546e+001
1.496514e+003;4.531010e+001
1.498442e+003;4.532698e+001
1.500371e+003;4.533971e+001
1.502299e+003;4.533449e+001
1.504228e+003;4.533019e+001
1.506156e+003;4.531347e+001
1.508085e+003;4.530149e+001
1.510013e+003;4.531237e+001
1.511942e+003;4.530796e+001
1.513870e+003;4.529516e+001
1.515799e+003;4.528863e+001
1.517727e+003;4.527351e+001
1.519656e+003;4.524051e+001
1.521584e+003;4.522840e+001
1.523513e+003;4.523561e+001
1.525441e+003;4.522832e+001
1.527370e+003;4.521285e+001
1.529298e+003;4.519028e+001
1.531227e+003;4.517376e+001
1.533155e+003;4.516770e+001
1.535084e+003;4.514923e+001
1.537012e+003;4.514090e+001
1.538941e+003;4.512527e+001
1.540869e+003;4.509206e+001
1.542798e+003;4.508080e+001
1.544726e+003;4.506343e+001
1.546655e+003;4.504514e+001
1.548583e+003;4.503785e+001
1.550512e+003;4.502444e+001
1.552440e+003;4.499111e+001
1.554369e+003;4.496547e+001
1.556297e+003;4.495492e+001
1.558226e+003;4.493669e+001
1.560154e+003;4.491432e+001
1.562083e+003;4.490778e+001
1.564011e+003;4.489259e+001
1.565940e+003;4.487835e+001
1.567868e+003;4.485654e+001
1.569797e+003;4.483939e+001
1.571725e+003;4.482674e+001
1.573654e+003;4.479865e+001
1.575582e+003;4.476037e+001
1.577511e+003;4.475473e+001
1.579439e+003;4.474647e+001
1.581368e+003;4.473063e+001
1.583296e+003;4.471596e+001
1.585225e+003;4.469521e+001
1.587153e+003;4.468502e+001
1.589082e+003;4.466773e+001
1.591010e+003;4.464126e+001
1.592939e+003;4.462630e+001
1.594867e+003;4.460684e+001
1.596796e+003;4.458612e+001
1.598724e+003;4.457906e+001
1.600653e+003;4.456039e+001
1.602581e+003;4.453815e+001
1.604510e+003;4.452287e+001
1.606438e+003;4.449833e+001
1.608367e+003;4.448022e+001
1.610295e+003;4.447058e+001
1.612224e+003;4.445118e+001
1.614152e+003;4.443607e+001
1.616081e+003;4.441747e+001
1.618009e+003;4.438965e+001
1.619938e+003;4.437507e+001
1.621866e+003;4.436026e+001
1.623795e+003;4.433966e+001
1.625723e+003;4.433049e+001
1.627652e+003;4.431319e+001
1.629580e+003;4.428895e+001
1.631509e+003;4.427695e+001
1.633437e+003;4.426402e+001
1.635366e+003;4.425034e+001
1.637294e+003;4.423720e+001
1.639223e+003;4.421535e+001
1.641151e+003;4.419328e+001
1.643080e+003;4.418201e+001
1.645008e+003;4.416258e+001
1.646937e+003;4.414322e+001
1.648865e+003;4.413506e+001
1.650794e+003;4.411029e+001
1.652722e+003;4.407238e+001
1.654651e+003;4.407259e+001
1.656579e+003;4.406433e+001
1.658508e+003;4.405252e+001
1.660436e+003;4.404531e+001
1.662365e+003;4.402859e+001
1.664293e+003;4.401663e+001
1.666222e+003;4.399720e+001
1.668150e+003;4.396661e+001
1.670079e+003;4.395619e+001
1.672007e+003;4.394899e+001
1.673936e+003;4.392225e+001
1.675864e+003;4.391368e+001
1.677793e+003;4.390551e+001
1.679721e+003;4.388625e+001
1.681650e+003;4.387215e+001
1.683578e+003;4.385983e+001
1.685507e+003;4.385318e+001
1.687435e+003;4.383696e+001
1.689364e+003;4.381124e+001
1.691292e+003;4.379142e+001
1.693221e+003;4.378100e+001
1.695149e+003;4.376518e+001
1.697078e+003;4.374078e+001
1.699006e+003;4.370085e+001
1.700935e+003;4.367727e+001
1.702863e+003;4.367589e+001
1.704792e+003;4.365591e+001
1.706720e+003;4.362427e+001
1.708649e+003;4.360613e+001
1.710577e+003;4.358425e+001
1.712505e+003;4.355839e+001
1.714434e+003;4.354491e+001
1.716363e+003;4.352030e+001
1.718291e+003;4.348944e+001
1.720219e+003;4.347660e+001
1.722148e+003;4.346081e+001
1.724077e+003;4.344907e+001
1.726005e+003;4.344463e+001
1.727933e+003;4.342565e+001
1.729862e+003;4.341206e+001
1.731791e+003;4.340289e+001
1.733719e+003;4.339028e+001
1.735647e+003;4.339288e+001
1.737576e+003;4.338976e+001
1.739505e+003;4.337487e+001
1.741433e+003;4.336463e+001
1.743361e+003;4.334846e+001
1.745290e+003;4.332859e+001
1.747219e+003;4.332209e+001
1.749147e+003;4.330770e+001
1.751075e+003;4.328926e+001
1.753004e+003;4.328130e+001
1.754932e+003;4.326059e+001
1.756861e+003;4.323775e+001
1.758789e+003;4.322908e+001
1.760718e+003;4.321394e+001
1.762646e+003;4.319922e+001
1.764575e+003;4.318480e+001
1.766503e+003;4.315546e+001
1.768432e+003;4.313506e+001
1.770360e+003;4.312405e+001
1.772289e+003;4.310599e+001
1.774217e+003;4.309578e+001
1.776146e+003;4.308108e+001
1.778074e+003;4.305513e+001
1.780003e+003;4.303977e+001
1.781931e+003;4.302180e+001
1.783860e+003;4.299619e+001
1.785788e+003;4.298814e+001
1.787717e+003;4.297353e+001
1.789645e+003;4.294962e+001
1.791574e+003;4.293547e+001
1.793502e+003;4.291365e+001
1.795431e+003;4.289491e+001
1.797359e+003;4.288784e+001
1.799288e+003;4.286572e+001
1.801216e+003;4.284708e+001
1.803145e+003;4.283604e+001
1.805073e+003;4.280959e+001
1.807002e+003;4.279145e+001
1.808930e+003;4.278017e+001
1.810859e+003;4.275663e+001
1.812787e+003;4.274445e+001
1.814716e+003;4.272914e+001
1.816644e+003;4.270115e+001
1.818573e+003;4.268734e+001
1.820501e+003;4.267004e+001
1.822430e+003;4.264570e+001
1.824358e+003;4.263760e+001
1.826287e+003;4.261785e+001
1.828215e+003;4.259085e+001
1.830144e+003;4.257843e+001
1.832072e+003;4.255581e+001
1.834001e+003;4.253399e+001
1.835929e+003;4.252438e+001
1.837858e+003;4.250041e+001
1.839786e+003;4.248083e+001
1.841715e+003;4.246826e+001
1.843643e+003;4.244184e+001
1.845572e+003;4.242304e+001
1.847500e+003;4.241034e+001
1.849429e+003;4.238520e+001
1.851357e+003;4.237141e+001
1.853286e+003;4.235407e+001
1.855214e+003;4.232484e+001
1.857143e+003;4.231192e+001
1.859071e+003;4.229684e+001
1.861000e+003;4.227433e+001
1.862928e+003;4.226555e+001
1.864857e+003;4.224384e+001
1.866785e+003;4.221785e+001
1.868714e+003;4.220827e+001
1.870642e+003;4.218761e+001
1.872571e+003;4.216768e+001
1.874499e+003;4.216192e+001
1.876428e+003;4.213877e+001
1.878356e+003;4.212150e+001
1.880285e+003;4.211106e+001
1.882213e+003;4.208424e+001
1.884142e+003;4.207230e+001
1.886070e+003;4.206565e+001
1.887999e+003;4.203926e+001
1.889927e+003;4.202804e+001
1.891856e+003;4.201729e+001
1.893784e+003;4.199387e+001
1.895713e+003;4.198667e+001
1.897641e+003;4.197342e+001
1.899570e+003;4.195272e+001
1.901498e+003;4.194986e+001
1.903427e+003;4.193184e+001
1.905355e+003;4.190863e+001
1.907284e+003;4.190339e+001
1.909212e+003;4.188616e+001
1.911141e+003;4.187082e+001
1.913069e+003;4.186625e+001
1.914998e+003;4.184180e+001
1.916926e+003;4.182693e+001
1.918855e+003;4.182075e+001
1.920783e+003;4.179473e+001
1.922712e+003;4.178257e+001
1.924640e+003;4.177739e+001
1.926569e+003;4.175462e+001
1.928497e+003;4.174429e+001
1.930426e+003;4.172934e+001
1.932354e+003;4.170316e+001
1.934283e+003;4.169839e+001
1.936211e+003;4.168600e+001
1.938140e+003;4.166132e+001
1.940068e+003;4.165512e+001
1.941997e+003;4.163572e+001
1.943925e+003;4.161346e+001
1.945854e+003;4.160778e+001
1.947782e+003;4.158650e+001
1.949711e+003;4.156951e+001
1.951639e+003;4.156569e+001
1.953568e+003;4.153823e+001
1.955496e+003;4.151946e+001
1.957425e+003;4.151205e+001
1.959353e+003;4.148812e+001
1.961282e+003;4.147750e+001
1.963210e+003;4.146552e+001
1.965139e+003;4.143586e+001
1.967067e+003;4.142809e+001
1.968996e+003;4.141441e+001
1.970924e+003;4.138652e+001
1.972853e+003;4.138179e+001
1.974781e+003;4.136695e+001
1.976710e+003;4.134162e+001
1.978638e+003;4.133526e+001
1.980567e+003;4.131062e+001
1.982495e+003;4.128844e+001
1.984424e+003;4.128723e+001
1.986352e+003;4.126488e+001
1.988281e+003;4.124558e+001
1.990209e+003;4.123835e+001
1.992138e+003;4.120996e+001
1.994066e+003;4.119637e+001
1.995995e+003;4.118883e+001
1.997923e+003;4.116131e+001
1.999852e+003;4.115361e+001
2.001780e+003;4.114447e+001
2.003709e+003;4.111379e+001
2.005637e+003;4.110526e+001
2.007566e+003;4.109155e+001
2.009494e+003;4.106758e+001
2.011423e+003;4.106440e+001
2.013351e+003;4.104505e+001
2.015280e+003;4.102028e+001
2.017208e+003;4.101731e+001
2.019137e+003;4.099520e+001
2.021065e+003;4.097616e+001
2.022994e+003;4.097485e+001
2.024922e+003;4.095304e+001
2.026851e+003;4.093848e+001
2.028779e+003;4.093082e+001
2.030708e+003;4.090203e+001
2.032636e+003;4.089308e+001
2.034565e+003;4.088836e+001
2.036493e+003;4.086339e+001
2.038422e+003;4.085453e+001
2.040350e+003;4.084168e+001
2.042279e+003;4.081594e+001
2.044207e+003;4.081189e+001
2.046135e+003;4.079617e+001
2.048064e+003;4.077449e+001
2.049992e+003;4.077310e+001
2.051921e+003;4.075341e+001
2.053850e+003;4.073048e+001
2.055778e+003;4.072638e+001
2.057707e+003;4.070675e+001
2.059635e+003;4.069310e+001
2.061563e+003;4.068849e+001
2.063492e+003;4.066405e+001
2.065420e+003;4.064943e+001
2.067349e+003;4.064262e+001
2.069278e+003;4.061783e+001
2.071206e+003;4.060781e+001
2.073135e+003;4.059962e+001
2.075063e+003;4.057706e+001
2.076991e+003;4.056770e+001
2.078920e+003;4.055335e+001
2.080848e+003;4.052946e+001
2.082777e+003;4.052436e+001
2.084706e+003;4.051094e+001
2.086634e+003;4.048937e+001
2.088563e+003;4.048074e+001
2.090491e+003;4.046272e+001
2.092419e+003;4.044408e+001
2.094348e+003;4.043708e+001
2.096276e+003;4.041615e+001
2.098205e+003;4.040126e+001
2.100134e+003;4.039546e+001
2.102062e+003;4.037260e+001
2.103990e+003;4.035460e+001
2.105919e+003;4.034606e+001
2.107847e+003;4.032671e+001
2.109776e+003;4.031562e+001
2.111704e+003;4.030370e+001
2.113633e+003;4.028166e+001
2.115562e+003;4.026999e+001
2.117490e+003;4.025528e+001
2.119418e+003;4.023169e+001
2.121347e+003;4.022307e+001
2.123275e+003;4.021062e+001
2.125204e+003;4.019073e+001
2.127132e+003;4.017950e+001
2.129061e+003;4.016098e+001
2.130990e+003;4.014153e+001
2.132918e+003;4.013487e+001
2.134846e+003;4.011820e+001
2.136775e+003;4.009910e+001
2.138703e+003;4.008791e+001
2.140632e+003;4.006917e+001
2.142560e+003;4.005299e+001
2.144489e+003;4.004144e+001
2.146417e+003;4.002050e+001
2.148346e+003;4.000852e+001
2.150274e+003;3.999899e+001
2.152203e+003;3.997607e+001
2.154131e+003;3.996016e+001
2.156060e+003;3.994861e+001
2.157988e+003;3.992913e+001
2.159917e+003;3.991837e+001
2.161845e+003;3.990384e+001
2.163774e+003;3.988169e+001
2.165702e+003;3.986937e+001
2.167631e+003;3.985373e+001
2.169559e+003;3.983239e+001
2.171488e+003;3.982344e+001
2.173416e+003;3.980840e+001
2.175345e+003;3.978939e+001
2.177273e+003;3.977716e+001
2.179202e+003;3.975629e+001
2.181130e+003;3.973817e+001
2.183059e+003;3.973129e+001
2.184987e+003;3.971201e+001
2.186916e+003;3.969274e+001
2.188844e+003;3.968226e+001
2.190773e+003;3.966198e+001
2.192701e+003;3.964579e+001
2.194630e+003;3.963491e+001
2.196558e+003;3.961248e+001
2.198487e+003;3.959962e+001
2.200415e+003;3.958817e+001
2.202344e+003;3.956319e+001
2.204272e+003;3.954790e+001
2.206201e+003;3.953594e+001
2.208129e+003;3.951392e+001
2.210058e+003;3.950325e+001
2.211986e+003;3.948733e+001
2.213915e+003;3.946267e+001
2.215843e+003;3.945218e+001
2.217772e+003;3.943417e+001
2.219700e+003;3.940963e+001
2.221629e+003;3.940155e+001
2.223557e+003;3.938065e+001
2.225486e+003;3.935838e+001
2.227414e+003;3.934938e+001
2.229343e+003;3.932476e+001
2.231271e+003;3.930587e+001
2.233200e+003;3.930120e+001
2.235128e+003;3.927387e+001
2.237057e+003;3.925547e+001
2.238985e+003;3.924598e+001
2.240914e+003;3.921645e+001
2.242842e+003;3.920297e+001
2.244771e+003;3.919279e+001
2.246699e+003;3.916293e+001
2.248628e+003;3.915563e+001
2.250556e+003;3.914077e+001
2.252485e+003;3.910947e+001
2.254413e+003;3.910428e+001
2.256342e+003;3.908681e+001
2.258270e+003;3.905981e+001
2.260199e+003;3.905700e+001
2.262127e+003;3.903124e+001
2.264056e+003;3.900721e+001
2.265984e+003;3.900727e+001
2.267913e+003;3.898001e+001
2.269841e+003;3.896098e+001
2.271770e+003;3.896001e+001
2.273698e+003;3.892895e+001
2.275627e+003;3.891537e+001
2.277555e+003;3.890846e+001
2.279484e+003;3.887574e+001
2.281412e+003;3.886958e+001
2.283341e+003;3.886289e+001
2.285269e+003;3.882951e+001
2.287198e+003;3.882448e+001
2.289126e+003;3.880980e+001
2.291055e+003;3.877921e+001
2.292983e+003;3.877900e+001
2.294912e+003;3.875986e+001
2.296840e+003;3.873328e+001
2.298769e+003;3.873598e+001
2.300697e+003;3.870964e+001
2.302626e+003;3.868542e+001
2.304554e+003;3.868637e+001
2.306483e+003;3.865821e+001
2.308411e+003;3.864181e+001
2.310340e+003;3.864124e+001
2.312268e+003;3.860707e+001
2.314197e+003;3.859489e+001
2.316125e+003;3.859038e+001
2.318054e+003;3.855706e+001
2.319982e+003;3.855224e+001
2.321911e+003;3.854309e+001
2.323839e+003;3.850839e+001
2.325768e+003;3.850805e+001
2.327696e+003;3.849123e+001
2.329625e+003;3.845982e+001
2.331553e+003;3.846614e+001
2.333482e+003;3.844523e+001
2.335410e+003;3.841397e+001
2.337339e+003;3.841720e+001
2.339267e+003;3.839027e+001
2.341196e+003;3.836966e+001
2.343124e+003;3.837258e+001
2.345053e+003;3.834297e+001
2.346981e+003;3.832813e+001
2.348910e+003;3.832928e+001
2.350838e+003;3.829448e+001
2.352767e+003;3.828332e+001
2.354695e+003;3.828045e+001
2.356624e+003;3.824920e+001
2.358552e+003;3.824582e+001
2.360481e+003;3.823737e+001
2.362409e+003;3.820246e+001
2.364338e+003;3.820121e+001
2.366266e+003;3.818478e+001
2.368195e+003;3.815206e+001
2.370123e+003;3.815504e+001
2.372052e+003;3.813519e+001
2.373980e+003;3.810736e+001
2.375908e+003;3.811054e+001
2.377837e+003;3.808333e+001
2.379766e+003;3.806274e+001
2.381694e+003;3.806700e+001
2.383623e+003;3.803519e+001
2.385551e+003;3.801730e+001
2.387479e+003;3.801780e+001
2.389408e+003;3.798465e+001
2.391336e+003;3.797581e+001
2.393265e+003;3.797139e+001
2.395194e+003;3.793667e+001
2.397122e+003;3.793305e+001
2.399051e+003;3.792347e+001
2.400979e+003;3.788832e+001
2.402907e+003;3.788904e+001
2.404836e+003;3.787399e+001
2.406764e+003;3.784557e+001
2.408693e+003;3.784768e+001
2.410622e+003;3.782368e+001
2.412550e+003;3.779731e+001
2.414479e+003;3.780257e+001
2.416407e+003;3.777513e+001
2.418335e+003;3.775536e+001
2.420264e+003;3.775803e+001
2.422192e+003;3.772618e+001
2.424121e+003;3.771119e+001
2.426050e+003;3.771009e+001
2.427978e+003;3.767589e+001
2.429906e+003;3.767043e+001
2.431835e+003;3.766496e+001
2.433763e+003;3.762933e+001
2.435692e+003;3.762783e+001
2.437620e+003;3.761636e+001
2.439549e+003;3.758342e+001
2.441478e+003;3.758649e+001
2.443406e+003;3.756747e+001
2.445334e+003;3.753961e+001
2.447263e+003;3.754417e+001
2.449191e+003;3.751764e+001
2.451120e+003;3.749191e+001
2.453048e+003;3.749705e+001
2.454977e+003;3.746813e+001
2.456906e+003;3.745277e+001
2.458834e+003;3.745408e+001
2.460762e+003;3.741831e+001
2.462691e+003;3.740909e+001
2.464619e+003;3.740969e+001
2.466548e+003;3.737193e+001
2.468476e+003;3.736776e+001
2.470405e+003;3.736076e+001
2.472333e+003;3.732476e+001
2.474262e+003;3.732601e+001
2.476190e+003;3.731136e+001
2.478119e+003;3.727802e+001
2.480047e+003;3.728723e+001
2.481976e+003;3.726545e+001
2.483904e+003;3.723452e+001
2.485833e+003;3.724214e+001
2.487761e+003;3.721461e+001
2.489690e+003;3.719101e+001
2.491618e+003;3.719995e+001
2.493547e+003;3.716590e+001
2.495475e+003;3.714951e+001
2.497404e+003;3.715461e+001
2.499332e+003;3.711679e+001
2.501261e+003;3.710698e+001
2.503189e+003;3.710957e+001
2.505118e+003;3.707150e+001
2.507046e+003;3.707050e+001
2.508975e+003;3.706258e+001
2.510903e+003;3.702353e+001
2.512832e+003;3.702964e+001
2.514760e+003;3.701857e+001
2.516689e+003;3.698087e+001
2.518617e+003;3.698853e+001
2.520546e+003;3.696948e+001
2.522474e+003;3.693956e+001
2.524403e+003;3.694776e+001
2.526331e+003;3.691969e+001
2.528260e+003;3.689549e+001
2.530188e+003;3.690645e+001
2.532117e+003;3.687163e+001
2.534045e+003;3.685189e+001
2.535974e+003;3.685792e+001
2.537902e+003;3.682125e+001
2.539831e+003;3.681052e+001
2.541759e+003;3.681239e+001
2.543688e+003;3.677221e+001
2.545616e+003;3.676961e+001
2.547545e+003;3.676505e+001
2.549473e+003;3.672572e+001
2.551402e+003;3.672853e+001
2.553330e+003;3.671817e+001
2.555259e+003;3.668236e+001
2.557187e+003;3.668793e+001
2.559116e+003;3.666688e+001
2.561044e+003;3.663664e+001
2.562973e+003;3.664699e+001
2.564901e+003;3.662140e+001
2.566830e+003;3.659589e+001
2.568758e+003;3.660347e+001
2.570687e+003;3.657244e+001
2.572615e+003;3.655674e+001
2.574544e+003;3.656049e+001
2.576472e+003;3.652523e+001
2.578401e+003;3.651715e+001
2.580329e+003;3.651721e+001
2.582258e+003;3.647867e+001
2.584186e+003;3.647520e+001
2.586115e+003;3.646843e+001
2.588043e+003;3.643591e+001
2.589972e+003;3.643898e+001
2.591900e+003;3.642317e+001
2.593829e+003;3.639101e+001
2.595757e+003;3.639769e+001
2.597686e+003;3.637394e+001
2.599614e+003;3.634760e+001
2.601543e+003;3.635479e+001
2.603471e+003;3.632750e+001
2.605400e+003;3.630955e+001
2.607328e+003;3.631372e+001
2.609257e+003;3.627717e+001
2.611185e+003;3.626691e+001
2.613114e+003;3.627037e+001
2.615042e+003;3.623429e+001
2.616971e+003;3.622804e+001
2.618899e+003;3.622297e+001
2.620828e+003;3.618551e+001
2.622756e+003;3.618880e+001
2.624685e+003;3.617588e+001
2.626613e+003;3.614124e+001
2.628542e+003;3.615052e+001
2.630470e+003;3.613007e+001
2.632399e+003;3.609605e+001
2.634327e+003;3.610800e+001
2.636256e+003;3.608231e+001
2.638184e+003;3.605829e+001
2.640113e+003;3.606840e+001
2.642041e+003;3.603344e+001
2.643970e+003;3.601460e+001
2.645898e+003;3.602479e+001
2.647827e+003;3.598623e+001
2.649755e+003;3.597670e+001
2.651684e+003;3.598101e+001
2.653612e+003;3.594080e+001
2.655541e+003;3.593834e+001
2.657469e+003;3.593612e+001
2.659398e+003;3.589403e+001
2.661326e+003;3.590128e+001
2.663255e+003;3.589317e+001
2.665183e+003;3.585222e+001
2.667112e+003;3.585981e+001
2.669040e+003;3.584316e+001
2.670969e+003;3.580931e+001
2.672897e+003;3.582209e+001
2.674826e+003;3.579613e+001
2.676754e+003;3.576800e+001
2.678683e+003;3.578064e+001
2.680611e+003;3.574926e+001
2.682540e+003;3.572717e+001
2.684468e+003;3.573750e+001
2.686397e+003;3.570277e+001
2.688325e+003;3.569178e+001
2.690254e+003;3.569526e+001
2.692182e+003;3.565516e+001
2.694111e+003;3.565014e+001
2.696039e+003;3.565173e+001
2.697968e+003;3.561317e+001
2.699896e+003;3.561349e+001
2.701825e+003;3.560439e+001
2.703753e+003;3.557077e+001
2.705682e+003;3.557609e+001
2.707610e+003;3.555725e+001
2.709539e+003;3.552613e+001
2.711467e+003;3.553653e+001
2.713396e+003;3.551312e+001
2.715324e+003;3.548760e+001
2.717253e+003;3.549329e+001
2.719181e+003;3.546510e+001
2.721110e+003;3.545003e+001
2.723038e+003;3.545385e+001
2.724967e+003;3.541882e+001
2.726895e+003;3.541109e+001
2.728823e+003;3.541032e+001
2.730752e+003;3.537516e+001
2.732681e+003;3.537205e+001
2.734609e+003;3.536519e+001
2.736538e+003;3.533244e+001
2.738466e+003;3.533749e+001
2.740395e+003;3.532038e+001
2.742323e+003;3.528892e+001
2.744251e+003;3.529756e+001
2.746180e+003;3.527649e+001
2.748109e+003;3.524960e+001
2.750037e+003;3.525693e+001
2.751966e+003;3.522732e+001
2.753894e+003;3.521166e+001
2.755823e+003;3.521793e+001
2.757751e+003;3.518102e+001
2.759679e+003;3.517181e+001
2.761608e+003;3.518010e+001
2.763537e+003;3.514029e+001
2.765465e+003;3.513467e+001
2.767394e+003;3.513259e+001
2.769322e+003;3.509566e+001
2.771250e+003;3.509983e+001
2.773179e+003;3.509036e+001
2.775107e+003;3.505200e+001
2.777036e+003;3.506265e+001
2.778965e+003;3.504630e+001
2.780893e+003;3.501163e+001
2.782822e+003;3.502327e+001
2.784750e+003;3.500044e+001
2.786678e+003;3.497315e+001
2.788607e+003;3.498612e+001
2.790535e+003;3.495263e+001
2.792464e+003;3.493127e+001
2.794393e+003;3.494617e+001
2.796321e+003;3.491228e+001
2.798250e+003;3.489542e+001
2.800178e+003;3.490237e+001
2.802106e+003;3.486590e+001
2.804035e+003;3.486036e+001
2.805963e+003;3.485958e+001
2.807892e+003;3.481941e+001
2.809821e+003;3.482116e+001
2.811749e+003;3.481810e+001
2.813677e+003;3.477905e+001
2.815606e+003;3.478328e+001
2.817534e+003;3.477230e+001
2.819463e+003;3.474155e+001
2.821391e+003;3.474792e+001
2.823320e+003;3.472678e+001
2.825249e+003;3.469991e+001
2.827177e+003;3.470982e+001
2.829105e+003;3.468409e+001
2.831034e+003;3.466313e+001
2.832962e+003;3.466738e+001
2.834891e+003;3.463887e+001
2.836819e+003;3.462877e+001
2.838748e+003;3.462984e+001
2.840677e+003;3.459344e+001
2.842605e+003;3.459035e+001
2.844533e+003;3.458823e+001
2.846462e+003;3.455338e+001
2.848390e+003;3.455066e+001
2.850319e+003;3.453960e+001
2.852247e+003;3.451086e+001
2.854176e+003;3.451635e+001
2.856104e+003;3.449393e+001
2.858033e+003;3.446846e+001
2.859961e+003;3.447890e+001
2.861890e+003;3.445352e+001
2.863818e+003;3.443050e+001
2.865747e+003;3.443732e+001
2.867675e+003;3.440749e+001
2.869604e+003;3.439795e+001
2.871532e+003;3.440211e+001
2.873461e+003;3.436523e+001
2.875389e+003;3.435999e+001
2.877318e+003;3.436150e+001
2.879246e+003;3.432321e+001
2.881175e+003;3.432428e+001
2.883103e+003;3.431775e+001
2.885032e+003;3.428279e+001
2.886960e+003;3.429056e+001
2.888889e+003;3.427513e+001
2.890817e+003;3.424032e+001
2.892746e+003;3.425583e+001
2.894674e+003;3.423671e+001
2.896603e+003;3.420433e+001
2.898531e+003;3.421416e+001
2.900460e+003;3.418832e+001
2.902388e+003;3.416671e+001
2.904317e+003;3.417804e+001
2.906245e+003;3.414229e+001
2.908174e+003;3.412792e+001
2.910102e+003;3.413868e+001
2.912031e+003;3.410308e+001
2.913959e+003;3.409178e+001
2.915888e+003;3.409506e+001
2.917816e+003;3.405896e+001
2.919745e+003;3.405740e+001
2.921673e+003;3.405189e+001
2.923602e+003;3.401292e+001
2.925530e+003;3.401656e+001
2.927459e+003;3.400941e+001
2.929387e+003;3.397438e+001
2.931316e+003;3.397819e+001
2.933244e+003;3.396125e+001
2.935173e+003;3.393585e+001
2.937101e+003;3.394201e+001
2.939030e+003;3.391713e+001
2.940958e+003;3.389700e+001
2.942887e+003;3.390767e+001
2.944815e+003;3.388015e+001
2.946744e+003;3.386322e+001
2.948672e+003;3.386359e+001
2.950601e+003;3.383620e+001
2.952529e+003;3.383076e+001
2.954458e+003;3.382436e+001
2.956386e+003;3.378967e+001
2.958315e+003;3.379094e+001
2.960243e+003;3.378172e+001
2.962172e+003;3.374940e+001
2.964100e+003;3.375114e+001
2.966029e+003;3.373650e+001
2.967957e+003;3.371377e+001
2.969886e+003;3.372161e+001
2.971814e+003;3.369466e+001
2.973743e+003;3.367498e+001
2.975671e+003;3.368582e+001
2.977600e+003;3.365779e+001
2.979528e+003;3.364183e+001
2.981457e+003;3.364656e+001
2.983385e+003;3.361438e+001
2.985314e+003;3.361026e+001
2.987242e+003;3.360964e+001
2.989171e+003;3.357100e+001
2.991099e+003;3.357389e+001
2.993028e+003;3.357381e+001
2.994956e+003;3.353440e+001
2.996885e+003;3.353819e+001
2.998813e+003;3.352836e+001
3.000742e+003;3.349752e+001
3.002670e+003;3.350693e+001
3.004599e+003;3.348677e+001
3.006527e+003;3.345695e+001
3.008456e+003;3.347411e+001
3.010384e+003;3.345119e+001
3.012313e+003;3.342532e+001
3.014241e+003;3.343505e+001
3.016170e+003;3.340710e+001
3.018098e+003;3.339076e+001
3.020027e+003;3.339914e+001
3.021955e+003;3.336350e+001
3.023884e+003;3.335416e+001
3.025812e+003;3.336201e+001
3.027741e+003;3.332719e+001
3.029669e+003;3.331939e+001
3.031598e+003;3.331916e+001
3.033526e+003;3.328832e+001
3.035455e+003;3.328896e+001
3.037383e+003;3.327769e+001
3.039312e+003;3.324831e+001
3.041240e+003;3.325562e+001
3.043169e+003;3.324220e+001
3.045097e+003;3.321242e+001
3.047026e+003;3.321595e+001
3.048954e+003;3.319733e+001
3.050883e+003;3.318027e+001
3.052811e+003;3.318245e+001
3.054740e+003;3.315448e+001
3.056668e+003;3.314199e+001
3.058597e+003;3.314644e+001
3.060525e+003;3.311712e+001
3.062454e+003;3.311005e+001
3.064382e+003;3.310704e+001
3.066311e+003;3.308106e+001
3.068239e+003;3.307999e+001
3.070167e+003;3.306735e+001
3.072096e+003;3.303798e+001
3.074025e+003;3.304552e+001
3.075953e+003;3.303107e+001
3.077882e+003;3.300538e+001
3.079810e+003;3.301009e+001
3.081739e+003;3.298875e+001
3.083667e+003;3.297091e+001
3.085595e+003;3.297741e+001
3.087524e+003;3.294468e+001
3.089453e+003;3.293223e+001
3.091381e+003;3.294087e+001
3.093310e+003;3.290771e+001
3.095238e+003;3.289773e+001
3.097167e+003;3.290208e+001
3.099095e+003;3.286929e+001
3.101023e+003;3.286866e+001
3.102952e+003;3.286401e+001
3.104881e+003;3.282842e+001
3.106809e+003;3.283369e+001
3.108738e+003;3.282808e+001
3.110666e+003;3.279240e+001
3.112594e+003;3.279911e+001
3.114523e+003;3.278826e+001
3.116451e+003;3.276214e+001
3.118380e+003;3.276977e+001
3.120309e+003;3.274883e+001
3.122237e+003;3.272339e+001
3.124166e+003;3.273514e+001
3.126094e+003;3.271081e+001
3.128022e+003;3.268999e+001
3.129951e+003;3.269508e+001
3.131879e+003;3.266938e+001
3.133808e+003;3.265849e+001
3.135737e+003;3.266106e+001
3.137665e+003;3.262986e+001
3.139594e+003;3.262441e+001
3.141522e+003;3.262364e+001
3.143450e+003;3.259565e+001
3.145379e+003;3.259221e+001
3.147307e+003;3.258471e+001
3.149236e+003;3.256032e+001
3.151165e+003;3.256293e+001
3.153093e+003;3.254532e+001
3.155021e+003;3.252218e+001
3.156950e+003;3.252695e+001
3.158878e+003;3.250893e+001
3.160807e+003;3.249036e+001
3.162735e+003;3.249165e+001
3.164664e+003;3.246808e+001
3.166593e+003;3.245998e+001
3.168521e+003;3.245805e+001
3.170449e+003;3.242898e+001
3.172378e+003;3.242564e+001
3.174306e+003;3.242474e+001
3.176235e+003;3.239488e+001
3.178163e+003;3.239417e+001
3.180092e+003;3.238412e+001
3.182021e+003;3.235878e+001
3.183949e+003;3.236462e+001
3.185877e+003;3.234826e+001
3.187806e+003;3.232088e+001
3.189734e+003;3.232984e+001
3.191663e+003;3.231010e+001
3.193591e+003;3.228879e+001
3.195520e+003;3.229646e+001
3.197448e+003;3.227305e+001
3.199377e+003;3.225819e+001
3.201305e+003;3.226585e+001
3.203234e+003;3.223504e+001
3.205162e+003;3.222506e+001
3.207091e+003;3.222980e+001
3.209019e+003;3.219829e+001
3.210948e+003;3.219152e+001
3.212876e+003;3.219341e+001
3.214805e+003;3.216376e+001
3.216733e+003;3.216468e+001
3.218662e+003;3.215931e+001
3.220590e+003;3.212914e+001
3.222519e+003;3.213201e+001
3.224447e+003;3.212452e+001
3.226376e+003;3.209755e+001
3.228304e+003;3.210081e+001
3.230233e+003;3.208652e+001
3.232161e+003;3.206814e+001
3.234090e+003;3.207098e+001
3.236018e+003;3.205045e+001
3.237947e+003;3.203375e+001
3.239875e+003;3.203840e+001
3.241804e+003;3.201709e+001
3.243732e+003;3.200455e+001
3.245661e+003;3.200172e+001
3.247589e+003;3.197839e+001
3.249518e+003;3.197231e+001
3.251446e+003;3.196777e+001
3.253375e+003;3.194361e+001
3.255303e+003;3.194199e+001
3.257232e+003;3.193012e+001
3.259160e+003;3.191001e+001
3.261089e+003;3.191066e+001
3.263017e+003;3.189422e+001
3.264946e+003;3.187687e+001
3.266874e+003;3.188151e+001
3.268803e+003;3.186017e+001
3.270731e+003;3.184537e+001
3.272660e+003;3.184553e+001
3.274588e+003;3.182303e+001
3.276517e+003;3.181408e+001
3.278445e+003;3.181289e+001
3.280374e+003;3.178625e+001
3.282302e+003;3.178424e+001
3.284231e+003;3.177993e+001
3.286159e+003;3.175169e+001
3.288088e+003;3.175108e+001
3.290016e+003;3.174746e+001
3.291945e+003;3.172237e+001
3.293873e+003;3.172400e+001
3.295802e+003;3.170931e+001
3.297730e+003;3.168618e+001
3.299659e+003;3.169309e+001
3.301587e+003;3.167701e+001
3.303516e+003;3.165496e+001
3.305444e+003;3.166264e+001
3.307373e+003;3.164228e+001
3.309301e+003;3.162496e+001
3.311230e+003;3.162658e+001
3.313158e+003;3.160318e+001
3.315087e+003;3.159292e+001
3.317015e+003;3.159737e+001
3.318944e+003;3.157126e+001
3.320872e+003;3.156120e+001
3.322801e+003;3.156123e+001
3.324729e+003;3.154100e+001
3.326658e+003;3.153447e+001
3.328586e+003;3.152549e+001
3.330515e+003;3.150256e+001
3.332443e+003;3.150424e+001
3.334372e+003;3.149361e+001
3.336300e+003;3.147225e+001
3.338229e+003;3.147051e+001
3.340157e+003;3.145829e+001
3.342086e+003;3.144303e+001
3.344014e+003;3.143973e+001
3.345943e+003;3.141945e+001
3.347871e+003;3.141065e+001
3.349800e+003;3.141004e+001
3.351728e+003;3.138733e+001
3.353657e+003;3.137623e+001
3.355585e+003;3.137418e+001
3.357514e+003;3.135683e+001
3.359442e+003;3.135331e+001
3.361371e+003;3.133917e+001
3.363299e+003;3.131847e+001
3.365228e+003;3.132144e+001
3.367156e+003;3.131061e+001
3.369085e+003;3.128791e+001
3.371013e+003;3.128842e+001
3.372942e+003;3.127522e+001
3.374870e+003;3.126030e+001
3.376799e+003;3.125755e+001
3.378727e+003;3.123630e+001
3.380656e+003;3.122604e+001
3.382584e+003;3.123152e+001
3.384513e+003;3.120582e+001
3.386441e+003;3.119190e+001
3.388370e+003;3.119419e+001
3.390298e+003;3.117799e+001
3.392227e+003;3.116971e+001
3.394155e+003;3.116037e+001
3.396083e+003;3.113554e+001
3.398012e+003;3.113965e+001
3.399941e+003;3.113618e+001
3.401869e+003;3.110773e+001
3.403798e+003;3.110274e+001
3.405726e+003;3.109919e+001
3.407655e+003;3.108007e+001
3.409583e+003;3.107656e+001
3.411511e+003;3.106044e+001
3.413440e+003;3.104628e+001
3.415369e+003;3.105117e+001
3.417297e+003;3.103531e+001
3.419226e+003;3.101343e+001
3.421154e+003;3.101341e+001
3.423083e+003;3.100340e+001
3.425011e+003;3.099232e+001
3.426939e+003;3.098189e+001
3.428868e+003;3.096437e+001
3.430797e+003;3.095991e+001
3.432725e+003;3.095491e+001
3.434654e+003;3.093220e+001
3.436582e+003;3.092468e+001
3.438510e+003;3.091849e+001
3.440439e+003;3.090670e+001
3.442367e+003;3.089959e+001
3.444296e+003;3.088332e+001
3.446225e+003;3.087200e+001
3.448153e+003;3.087418e+001
3.450082e+003;3.085567e+001
3.452010e+003;3.083992e+001
3.453938e+003;3.083732e+001
3.455867e+003;3.082604e+001
3.457795e+003;3.081698e+001
3.459724e+003;3.080755e+001
3.461653e+003;3.078752e+001
3.463581e+003;3.078861e+001
3.465510e+003;3.078500e+001
3.467438e+003;3.076173e+001
3.469366e+003;3.075341e+001
3.471295e+003;3.074953e+001
3.473223e+003;3.073479e+001
3.475152e+003;3.073063e+001
3.477081e+003;3.071406e+001
3.479009e+003;3.070042e+001
3.480938e+003;3.070543e+001
3.482866e+003;3.069217e+001
3.484794e+003;3.067074e+001
3.486723e+003;3.067036e+001
3.488651e+003;3.066196e+001
3.490580e+003;3.064992e+001
3.492509e+003;3.064136e+001
3.494437e+003;3.062456e+001
3.496365e+003;3.061831e+001
3.498294e+003;3.062027e+001
3.500222e+003;3.059965e+001
3.502151e+003;3.058660e+001
3.504079e+003;3.058453e+001
3.506008e+003;3.057456e+001
3.507937e+003;3.056293e+001
3.509865e+003;3.055157e+001
3.511793e+003;3.053969e+001
3.513722e+003;3.054089e+001
3.515650e+003;3.053118e+001
3.517579e+003;3.051192e+001
3.519507e+003;3.050410e+001
3.521436e+003;3.050003e+001
3.523365e+003;3.048994e+001
3.525293e+003;3.047882e+001
3.527221e+003;3.046356e+001
3.529150e+003;3.045990e+001
3.531078e+003;3.045566e+001
3.533007e+003;3.043995e+001
3.534935e+003;3.042705e+001
3.536864e+003;3.042274e+001
3.538792e+003;3.041575e+001
3.540721e+003;3.040859e+001
3.542649e+003;3.039182e+001
3.544578e+003;3.038006e+001
3.546506e+003;3.038121e+001
3.548435e+003;3.037159e+001
3.550363e+003;3.035212e+001
3.552292e+003;3.034523e+001
3.554220e+003;3.033853e+001
3.556149e+003;3.033149e+001
3.558077e+003;3.032113e+001
3.560006e+003;3.030481e+001
3.561934e+003;3.029950e+001
3.563863e+003;3.029998e+001
3.565791e+003;3.028139e+001
3.567720e+003;3.026748e+001
3.569648e+003;3.026563e+001
3.571577e+003;3.026022e+001
3.573505e+003;3.024990e+001
3.575434e+003;3.023665e+001
3.577362e+003;3.022290e+001
3.579291e+003;3.022309e+001
3.581219e+003;3.021746e+001
3.583148e+003;3.019938e+001
3.585076e+003;3.018679e+001
3.587005e+003;3.018445e+001
3.588933e+003;3.018044e+001
3.590862e+003;3.017006e+001
3.592790e+003;3.015341e+001
3.594719e+003;3.014686e+001
3.596647e+003;3.014724e+001
3.598576e+003;3.013870e+001
3.600504e+003;3.011911e+001
3.602433e+003;3.011082e+001
3.604361e+003;3.010879e+001
3.606290e+003;3.009952e+001
3.608218e+003;3.008169e+001
3.610147e+003;3.007264e+001
3.612075e+003;3.007129e+001
3.614004e+003;3.006615e+001
3.615932e+003;3.005154e+001
3.617861e+003;3.003811e+001
3.619789e+003;3.003401e+001
3.621718e+003;3.003567e+001
3.623646e+003;3.002276e+001
3.625575e+003;3.000501e+001
3.627503e+003;2.999585e+001
3.629432e+003;2.999513e+001
3.631360e+003;2.998715e+001
3.633289e+003;2.997368e+001
3.635217e+003;2.996472e+001
3.637146e+003;2.996455e+001
3.639074e+003;2.995852e+001
3.641003e+003;2.994147e+001
3.642931e+003;2.992838e+001
3.644860e+003;2.992854e+001
3.646788e+003;2.992188e+001
3.648717e+003;2.990719e+001
3.650645e+003;2.989337e+001
3.652574e+003;2.989227e+001
3.654502e+003;2.989218e+001
3.656431e+003;2.987987e+001
3.658359e+003;2.986343e+001
3.660288e+003;2.985905e+001
3.662216e+003;2.985786e+001
3.664145e+003;2.985089e+001
3.666073e+003;2.983504e+001
3.668002e+003;2.982225e+001
3.669930e+003;2.982139e+001
3.671859e+003;2.981940e+001
3.673787e+003;2.979859e+001
3.675716e+003;2.978789e+001
3.677644e+003;2.978900e+001
3.679573e+003;2.978655e+001
3.681501e+003;2.977662e+001
3.683430e+003;2.976016e+001
3.685358e+003;2.975167e+001
3.687287e+003;2.975346e+001
3.689215e+003;2.973919e+001
3.691144e+003;2.972159e+001
3.693072e+003;2.971832e+001
3.695001e+003;2.971739e+001
3.696929e+003;2.971188e+001
3.698858e+003;2.969878e+001
3.700786e+003;2.968094e+001
3.702715e+003;2.968404e+001
3.704643e+003;2.968392e+001
3.706572e+003;2.966405e+001
3.708500e+003;2.965099e+001
3.710429e+003;2.964971e+001
3.712357e+003;2.964311e+001
3.714286e+003;2.963707e+001
3.716214e+003;2.962114e+001
3.718143e+003;2.961257e+001
3.720071e+003;2.961848e+001
3.722000e+003;2.960785e+001
3.723928e+003;2.958620e+001
3.725857e+003;2.958342e+001
3.727785e+003;2.958075e+001
3.729714e+003;2.957624e+001
3.731642e+003;2.956366e+001
3.733571e+003;2.954553e+001
3.735499e+003;2.954561e+001
3.737427e+003;2.955058e+001
3.739356e+003;2.952876e+001
3.741285e+003;2.951512e+001
3.743213e+003;2.950753e+001
3.745142e+003;2.949929e+001
3.747070e+003;2.949406e+001
3.748999e+003;2.947362e+001
3.750927e+003;2.945673e+001
3.752855e+003;2.946793e+001
3.754784e+003;2.946129e+001
3.756713e+003;2.943881e+001
3.758641e+003;2.943599e+001
3.760570e+003;2.943328e+001
3.762498e+003;2.942620e+001
3.764427e+003;2.941800e+001
3.766355e+003;2.939520e+001
3.768283e+003;2.939224e+001
3.770212e+003;2.939855e+001
3.772141e+003;2.937978e+001
3.774069e+003;2.936485e+001
3.775998e+003;2.936551e+001
3.777926e+003;2.935708e+001
3.779854e+003;2.935185e+001
3.781783e+003;2.933662e+001
3.783711e+003;2.932020e+001
3.785640e+003;2.932858e+001
3.787569e+003;2.932393e+001
3.789497e+003;2.929949e+001
3.791426e+003;2.929653e+001
3.793354e+003;2.929328e+001
3.795282e+003;2.928770e+001
3.797211e+003;2.927940e+001
3.799139e+003;2.925563e+001
3.801068e+003;2.925183e+001
3.802997e+003;2.926324e+001
3.804925e+003;2.924039e+001
3.806854e+003;2.922648e+001
3.808782e+003;2.922857e+001
3.810710e+003;2.922035e+001
3.812639e+003;2.921945e+001
3.814567e+003;2.920487e+001
3.816496e+003;2.918261e+001
3.818425e+003;2.919619e+001
3.820353e+003;2.919071e+001
3.822281e+003;2.916681e+001
3.824210e+003;2.916488e+001
3.826138e+003;2.915992e+001
3.828067e+003;2.915194e+001
3.829995e+003;2.915296e+001
3.831924e+003;2.912733e+001
3.833853e+003;2.911950e+001
3.835781e+003;2.913253e+001
3.837709e+003;2.911153e+001
3.839638e+003;2.909446e+001
3.841566e+003;2.910011e+001
3.843495e+003;2.908899e+001
3.845423e+003;2.908715e+001
3.847352e+003;2.907815e+001
3.849281e+003;2.905298e+001
3.851209e+003;2.905928e+001
3.853137e+003;2.906150e+001
3.855066e+003;2.903422e+001
3.856994e+003;2.903181e+001
3.858923e+003;2.903076e+001
3.860851e+003;2.902126e+001
3.862780e+003;2.902151e+001
3.864708e+003;2.900170e+001
3.866637e+003;2.898891e+001
3.868565e+003;2.900394e+001
3.870494e+003;2.898751e+001
3.872422e+003;2.896882e+001
3.874351e+003;2.897061e+001
3.876279e+003;2.896377e+001
3.878208e+003;2.896105e+001
3.880136e+003;2.895207e+001
3.882065e+003;2.892533e+001
3.883993e+003;2.893512e+001
3.885922e+003;2.894171e+001
3.887850e+003;2.891489e+001
3.889779e+003;2.890644e+001
3.891707e+003;2.890338e+001
3.893636e+003;2.889437e+001
3.895564e+003;2.890076e+001
3.897493e+003;2.887694e+001
3.899421e+003;2.886037e+001
3.901350e+003;2.887718e+001
3.903278e+003;2.886112e+001
3.905207e+003;2.884143e+001
3.907135e+003;2.884864e+001
3.909064e+003;2.883562e+001
3.910992e+003;2.883753e+001
3.912921e+003;2.883610e+001
3.914849e+003;2.880031e+001
3.916778e+003;2.880549e+001
3.918706e+003;2.882063e+001
3.920635e+003;2.878873e+001
3.922563e+003;2.878330e+001
3.924492e+003;2.878424e+001
3.926420e+003;2.877051e+001
3.928349e+003;2.877705e+001
3.930277e+003;2.875784e+001
3.932206e+003;2.873413e+001
3.934134e+003;2.875850e+001
3.936063e+003;2.874814e+001
3.937991e+003;2.872023e+001
3.939920e+003;2.872644e+001
3.941848e+003;2.871717e+001
3.943777e+003;2.871041e+001
3.945705e+003;2.871225e+001
3.947634e+003;2.867965e+001
3.949562e+003;2.868262e+001
3.951491e+003;2.870004e+001
3.953419e+003;2.867204e+001
3.955348e+003;2.865883e+001
3.957276e+003;2.866099e+001
3.959205e+003;2.864989e+001
3.961133e+003;2.865716e+001
3.963062e+003;2.863772e+001
3.964990e+003;2.861508e+001
3.966919e+003;2.863673e+001
3.968847e+003;2.862936e+001
3.970776e+003;2.859964e+001
3.972704e+003;2.860502e+001
3.974633e+003;2.859401e+001
3.976561e+003;2.859224e+001
3.978490e+003;2.859604e+001
3.980418e+003;2.856252e+001
3.982347e+003;2.856298e+001
3.984275e+003;2.858282e+001
3.986204e+003;2.855136e+001
3.988132e+003;2.854253e+001
3.990061e+003;2.854309e+001
3.991989e+003;2.852711e+001
3.993918e+003;2.854086e+001
3.995846e+003;2.852669e+001
3.997775e+003;2.849224e+001
3.999703e+003;2.851871e+001
