3.991989e+002;5.195220e+001
4.011274e+002;5.216916e+001
4.030559e+002;5.256482e+001
4.049844e+002;5.289531e+001
4.069129e+002;5.239708e+001
4.088414e+002;5.226742e+001
4.107699e+002;5.259920e+001
4.126984e+002;5.268895e+001
4.146269e+002;5.252876e+001
4.165554e+002;5.283133e+001
4.184839e+002;5.290152e+001
4.204124e+002;5.272897e+001
4.223409e+002;5.286686e+001
4.242694e+002;5.285833e+001
4.261979e+002;5.267098e+001
4.281264e+002;5.278416e+001
4.300549e+002;5.292192e+001
4.319834e+002;5.286095e+001
4.339119e+002;5.280309e+001
4.358404e+002;5.287091e+001
4.377689e+002;5.293135e+001
4.396974e+002;5.293060e+001
4.416259e+002;5.281919e+001
4.435544e+002;5.283193e+001
4.454829e+002;5.284493e+001
4.474114e+002;5.282262e+001
4.493399e+002;5.276723e+001
4.512684e+002;5.262954e+001
4.531969e+002;5.256313e+001
4.551254e+002;5.249813e+001
4.570539e+002;5.249692e+001
4.589824e+002;5.248259e+001
4.609109e+002;5.230066e+001
4.628394e+002;5.221068e+001
4.647679e+002;5.221803e+001
4.666964e+002;5.202965e+001
4.686248e+002;5.186980e+001
4.705533e+002;5.179683e+001
4.724818e+002;5.165697e+001
4.744103e+002;5.154328e+001
4.763388e+002;5.144873e+001
4.782673e+002;5.128056e+001
4.801958e+002;5.104070e+001
4.821243e+002;5.076903e+001
4.840528e+002;5.052454e+001
4.859813e+002;5.037766e+001
4.879098e+002;5.025323e+001
4.898383e+002;5.025219e+001
4.917668e+002;5.017031e+001
4.936953e+002;5.004387e+001
4.956238e+002;4.997465e+001
4.975523e+002;4.984448e+001
4.994808e+002;4.969448e+001
5.014093e+002;4.950345e+001
5.033378e+002;4.932808e+001
5.052663e+002;4.915114e+001
5.071948e+002;4.887653e+001
5.091233e+002;4.849600e+001
5.110518e+002;4.801653e+001
5.129803e+002;4.751862e+001
5.149088e+002;4.750203e+001
5.168373e+002;4.800436e+001
5.187657e+002;4.843651e+001
5.206943e+002;4.861313e+001
5.226227e+002;4.861148e+001
5.245513e+002;4.857219e+001
5.264797e+002;4.854548e+001
5.284083e+002;4.849612e+001
5.303367e+002;4.845678e+001
5.322653e+002;4.839243e+001
5.341937e+002;4.832318e+001
5.361223e+002;4.823015e+001
5.380507e+002;4.809372e+001
5.399792e+002;4.792514e+001
5.419077e+002;4.776196e+001
5.438362e+002;4.763363e+001
5.457647e+002;4.750538e+001
5.476932e+002;4.733714e+001
5.496217e+002;4.712686e+001
5.515502e+002;4.695031e+001
5.534787e+002;4.677738e+001
5.554072e+002;4.659224e+001
5.573357e+002;4.644883e+001
5.592642e+002;4.630529e+001
5.611927e+002;4.614848e+001
5.631212e+002;4.595942e+001
5.650497e+002;4.578970e+001
5.669782e+002;4.572022e+001
5.689067e+002;4.588041e+001
5.708352e+002;4.627891e+001
5.727637e+002;4.659632e+001
5.746922e+002;4.673758e+001
5.766207e+002;4.677298e+001
5.785492e+002;4.672147e+001
5.804777e+002;4.657666e+001
5.824062e+002;4.637614e+001
5.843347e+002;4.610240e+001
5.862632e+002;4.574524e+001
5.881917e+002;4.528524e+001
5.901202e+002;4.465713e+001
5.920486e+002;4.386959e+001
5.939772e+002;4.289119e+001
5.959056e+002;4.174418e+001
5.978342e+002;4.039343e+001
5.997626e+002;3.866615e+001
6.016912e+002;3.666544e+001
6.036196e+002;3.511008e+001
6.055482e+002;3.396677e+001
6.074766e+002;3.290483e+001
6.094052e+002;3.204401e+001
6.113336e+002;3.200876e+001
6.132621e+002;3.264214e+001
6.151906e+002;3.303081e+001
6.171191e+002;3.313990e+001
6.190476e+002;3.321674e+001
6.209761e+002;3.352566e+001
6.229046e+002;3.484345e+001
6.248331e+002;3.770303e+001
6.267616e+002;4.145575e+001
6.286901e+002;4.524083e+001
6.306186e+002;4.790372e+001
6.325471e+002;4.911768e+001
6.344756e+002;4.948884e+001
6.364041e+002;4.961964e+001
6.383326e+002;4.969917e+001
6.402611e+002;4.978056e+001
6.421896e+002;4.987170e+001
6.441181e+002;4.995950e+001
6.460466e+002;5.003285e+001
6.479751e+002;5.007512e+001
6.499036e+002;5.009109e+001
6.518321e+002;5.011849e+001
6.537606e+002;5.014618e+001
6.556891e+002;5.015213e+001
6.576176e+002;5.015115e+001
6.595461e+002;5.016322e+001
6.614745e+002;5.017604e+001
6.634031e+002;5.019926e+001
6.653315e+002;5.023343e+001
6.672601e+002;5.025011e+001
6.691885e+002;5.027507e+001
6.711171e+002;5.029058e+001
6.730455e+002;5.028547e+001
6.749741e+002;5.028805e+001
6.769025e+002;5.029603e+001
6.788311e+002;5.030187e+001
6.807595e+002;5.028495e+001
6.826880e+002;5.025163e+001
6.846165e+002;5.020504e+001
6.865450e+002;5.016058e+001
6.884735e+002;5.015112e+001
6.904020e+002;5.018027e+001
6.923305e+002;5.022010e+001
6.942590e+002;5.028131e+001
6.961875e+002;5.037917e+001
6.981160e+002;5.048399e+001
7.000445e+002;5.052315e+001
7.019730e+002;5.048811e+001
7.039015e+002;5.038221e+001
7.058300e+002;5.021461e+001
7.077585e+002;4.999156e+001
7.096870e+002;4.965880e+001
7.116155e+002;4.918173e+001
7.135440e+002;4.857221e+001
7.154725e+002;4.794363e+001
7.174010e+002;4.742740e+001
7.193295e+002;4.702379e+001
7.212580e+002;4.665768e+001
7.231865e+002;4.631244e+001
7.251150e+002;4.597360e+001
7.270435e+002;4.564652e+001
7.289720e+002;4.535414e+001
7.309005e+002;4.506846e+001
7.328290e+002;4.478732e+001
7.347574e+002;4.452576e+001
7.366860e+002;4.429284e+001
7.386144e+002;4.414748e+001
7.405430e+002;4.423791e+001
7.424714e+002;4.454504e+001
7.444000e+002;4.487705e+001
7.463284e+002;4.512563e+001
7.482570e+002;4.529589e+001
7.501854e+002;4.542526e+001
7.521140e+002;4.553718e+001
7.540424e+002;4.563565e+001
7.559709e+002;4.572055e+001
7.578994e+002;4.579631e+001
7.598279e+002;4.585257e+001
7.617564e+002;4.589512e+001
7.636849e+002;4.593192e+001
7.656134e+002;4.596282e+001
7.675419e+002;4.600164e+001
7.694704e+002;4.604009e+001
7.713989e+002;4.607447e+001
7.733274e+002;4.609959e+001
7.752559e+002;4.610974e+001
7.771844e+002;4.611902e+001
7.791129e+002;4.614227e+001
7.810414e+002;4.616805e+001
7.829699e+002;4.618996e+001
7.848984e+002;4.620371e+001
7.868269e+002;4.621087e+001
7.887554e+002;4.621258e+001
7.906839e+002;4.622781e+001
7.926124e+002;4.627966e+001
7.945409e+002;4.638975e+001
7.964694e+002;4.659290e+001
7.983979e+002;4.687608e+001
8.003264e+002;4.700544e+001
8.022549e+002;4.687658e+001
8.041833e+002;4.665224e+001
8.061119e+002;4.642487e+001
8.080403e+002;4.623402e+001
8.099689e+002;4.608165e+001
8.118973e+002;4.594419e+001
8.138259e+002;4.579664e+001
8.157543e+002;4.567230e+001
8.176829e+002;4.562460e+001
8.196113e+002;4.566533e+001
8.215399e+002;4.575822e+001
8.234683e+002;4.589233e+001
8.253969e+002;4.605637e+001
8.273253e+002;4.625909e+001
8.292538e+002;4.650438e+001
8.311823e+002;4.674731e+001
8.331108e+002;4.695022e+001
8.350393e+002;4.707646e+001
8.369678e+002;4.712414e+001
8.388963e+002;4.710747e+001
8.408248e+002;4.702577e+001
8.427533e+002;4.690781e+001
8.446818e+002;4.678853e+001
8.466103e+002;4.668883e+001
8.485388e+002;4.660147e+001
8.504673e+002;4.649744e+001
8.523958e+002;4.636908e+001
8.543243e+002;4.623388e+001
8.562528e+002;4.607894e+001
8.581813e+002;4.590631e+001
8.601098e+002;4.571154e+001
8.620383e+002;4.550018e+001
8.639668e+002;4.532349e+001
8.658953e+002;4.519263e+001
8.678238e+002;4.508623e+001
8.697523e+002;4.500478e+001
8.716808e+002;4.493245e+001
8.736093e+002;4.485754e+001
8.755378e+002;4.478092e+001
8.774662e+002;4.470564e+001
8.793948e+002;4.463606e+001
8.813232e+002;4.457776e+001
8.832518e+002;4.453868e+001
8.851802e+002;4.450611e+001
8.871088e+002;4.448036e+001
8.890372e+002;4.445850e+001
8.909658e+002;4.443751e+001
8.928942e+002;4.442863e+001
8.948227e+002;4.442830e+001
8.967512e+002;4.443961e+001
8.986797e+002;4.447628e+001
9.006082e+002;4.451666e+001
9.025367e+002;4.454827e+001
9.044652e+002;4.458715e+001
9.063937e+002;4.465204e+001
9.083222e+002;4.474517e+001
9.102507e+002;4.485963e+001
9.121792e+002;4.500044e+001
9.141077e+002;4.515366e+001
9.160362e+002;4.528941e+001
9.179647e+002;4.539768e+001
9.198932e+002;4.549199e+001
9.218217e+002;4.558063e+001
9.237502e+002;4.566538e+001
9.256786e+002;4.574731e+001
9.276072e+002;4.581250e+001
9.295356e+002;4.585982e+001
9.314642e+002;4.591175e+001
9.333926e+002;4.596271e+001
9.353212e+002;4.600922e+001
9.372496e+002;4.605125e+001
9.391782e+002;4.607976e+001
9.411066e+002;4.608486e+001
9.430352e+002;4.607253e+001
9.449636e+002;4.603992e+001
9.468922e+002;4.599968e+001
9.488206e+002;4.596050e+001
9.507491e+002;4.591401e+001
9.526776e+002;4.586390e+001
9.546061e+002;4.581709e+001
9.565346e+002;4.577199e+001
9.584631e+002;4.574178e+001
9.603916e+002;4.573290e+001
9.623201e+002;4.573159e+001
9.642486e+002;4.573154e+001
9.661771e+002;4.573756e+001
9.681056e+002;4.574434e+001
9.700341e+002;4.576325e+001
9.719626e+002;4.580328e+001
9.738911e+002;4.585825e+001
9.758196e+002;4.591990e+001
9.777481e+002;4.598061e+001
9.796766e+002;4.604499e+001
9.816051e+002;4.611668e+001
9.835336e+002;4.619990e+001
9.854621e+002;4.629333e+001
9.873906e+002;4.639583e+001
9.893191e+002;4.649144e+001
9.912476e+002;4.657190e+001
9.931761e+002;4.664656e+001
9.951046e+002;4.671446e+001
9.970331e+002;4.678104e+001
9.989615e+002;4.684936e+001
1.000890e+003;4.691160e+001
1.002819e+003;4.696727e+001
1.004747e+003;4.700834e+001
1.006676e+003;4.704324e+001
1.008604e+003;4.708295e+001
1.010533e+003;4.712100e+001
1.012461e+003;4.716286e+001
1.014390e+003;4.720449e+001
1.016318e+003;4.723643e+001
1.018247e+003;4.726384e+001
1.020175e+003;4.728703e+001
1.022104e+003;4.730882e+001
1.024032e+003;4.733517e+001
1.025961e+003;4.735711e+001
1.027889e+003;4.736846e+001
1.029818e+003;4.737428e+001
1.031746e+003;4.737324e+001
1.033675e+003;4.736987e+001
1.035603e+003;4.737250e+001
1.037531e+003;4.737289e+001
1.039460e+003;4.736211e+001
1.041389e+003;4.733870e+001
1.043317e+003;4.730024e+001
1.045245e+003;4.725718e+001
1.047174e+003;4.721975e+001
1.049103e+003;4.718307e+001
1.051031e+003;4.714511e+001
1.052959e+003;4.709890e+001
1.054888e+003;4.703766e+001
1.056817e+003;4.697091e+001
1.058745e+003;4.690226e+001
1.060673e+003;4.683154e+001
1.062602e+003;4.676059e+001
1.064531e+003;4.667944e+001
1.066459e+003;4.657779e+001
1.068387e+003;4.645546e+001
1.070316e+003;4.631499e+001
1.072245e+003;4.615675e+001
1.074173e+003;4.598238e+001
1.076101e+003;4.578494e+001
1.078030e+003;4.555150e+001
1.079958e+003;4.528177e+001
1.081887e+003;4.496914e+001
1.083815e+003;4.461356e+001
1.085744e+003;4.422463e+001
1.087672e+003;4.379086e+001
1.089601e+003;4.331671e+001
1.091529e+003;4.280794e+001
1.093458e+003;4.227276e+001
1.095386e+003;4.173956e+001
1.097315e+003;4.123441e+001
1.099243e+003;4.077813e+001
1.101172e+003;4.039472e+001
1.103100e+003;4.009358e+001
1.105029e+003;3.988204e+001
1.106957e+003;3.976949e+001
1.108886e+003;3.975359e+001
1.110814e+003;3.983302e+001
1.112743e+003;4.001163e+001
1.114671e+003;4.027837e+001
1.116600e+003;4.062322e+001
1.118528e+003;4.103610e+001
1.120457e+003;4.149223e+001
1.122385e+003;4.198446e+001
1.124314e+003;4.249873e+001
1.126242e+003;4.300410e+001
1.128171e+003;4.347557e+001
1.130099e+003;4.388593e+001
1.132028e+003;4.421730e+001
1.133956e+003;4.447969e+001
1.135885e+003;4.468710e+001
1.137813e+003;4.484983e+001
1.139742e+003;4.498398e+001
1.141670e+003;4.509211e+001
1.143599e+003;4.517205e+001
1.145527e+003;4.524048e+001
1.147456e+003;4.529914e+001
1.149384e+003;4.534995e+001
1.151313e+003;4.539545e+001
1.153241e+003;4.543392e+001
1.155170e+003;4.545871e+001
1.157098e+003;4.547578e+001
1.159027e+003;4.548945e+001
1.160955e+003;4.550666e+001
1.162884e+003;4.552997e+001
1.164812e+003;4.554757e+001
1.166741e+003;4.556332e+001
1.168669e+003;4.557430e+001
1.170598e+003;4.557949e+001
1.172526e+003;4.559055e+001
1.174455e+003;4.560803e+001
1.176383e+003;4.562415e+001
1.178312e+003;4.564363e+001
1.180240e+003;4.565162e+001
1.182169e+003;4.565045e+001
1.184097e+003;4.567739e+001
1.186026e+003;4.569704e+001
1.187954e+003;4.572004e+001
1.189883e+003;4.574670e+001
1.191811e+003;4.576536e+001
1.193740e+003;4.577733e+001
1.195668e+003;4.579408e+001
1.197597e+003;4.580697e+001
1.199525e+003;4.582557e+001
1.201454e+003;4.584701e+001
1.203382e+003;4.585994e+001
1.205311e+003;4.586514e+001
1.207239e+003;4.586628e+001
1.209168e+003;4.586378e+001
1.211096e+003;4.586505e+001
1.213025e+003;4.586400e+001
1.214953e+003;4.585652e+001
1.216882e+003;4.584240e+001
1.218810e+003;4.582008e+001
1.220739e+003;4.579023e+001
1.222667e+003;4.576464e+001
1.224596e+003;4.574211e+001
1.226524e+003;4.572169e+001
1.228453e+003;4.570311e+001
1.230381e+003;4.567973e+001
1.232310e+003;4.565348e+001
1.234238e+003;4.563060e+001
1.236167e+003;4.560708e+001
1.238095e+003;4.558641e+001
1.240024e+003;4.556337e+001
1.241952e+003;4.553291e+001
1.243881e+003;4.549819e+001
1.245809e+003;4.546138e+001
1.247738e+003;4.542386e+001
1.249666e+003;4.539265e+001
1.251595e+003;4.536068e+001
1.253523e+003;4.532318e+001
1.255452e+003;4.528288e+001
1.257380e+003;4.523909e+001
1.259309e+003;4.519154e+001
1.261237e+003;4.515105e+001
1.263166e+003;4.511133e+001
1.265094e+003;4.506991e+001
1.267023e+003;4.502741e+001
1.268951e+003;4.498074e+001
1.270880e+003;4.493110e+001
1.272808e+003;4.488734e+001
1.274737e+003;4.484322e+001
1.276665e+003;4.479931e+001
1.278594e+003;4.475647e+001
1.280522e+003;4.470628e+001
1.282451e+003;4.465253e+001
1.284379e+003;4.460546e+001
1.286308e+003;4.456210e+001
1.288236e+003;4.452443e+001
1.290165e+003;4.448931e+001
1.292093e+003;4.445015e+001
1.294022e+003;4.441116e+001
1.295950e+003;4.437751e+001
1.297879e+003;4.434861e+001
1.299807e+003;4.432914e+001
1.301736e+003;4.431400e+001
1.303664e+003;4.429751e+001
1.305593e+003;4.428112e+001
1.307521e+003;4.426675e+001
1.309450e+003;4.425430e+001
1.311378e+003;4.425131e+001
1.313307e+003;4.425288e+001
1.315235e+003;4.425444e+001
1.317164e+003;4.425434e+001
1.319092e+003;4.425169e+001
1.321021e+003;4.425065e+001
1.322949e+003;4.425612e+001
1.324878e+003;4.426155e+001
1.326806e+003;4.426852e+001
1.328735e+003;4.427325e+001
1.330663e+003;4.427002e+001
1.332592e+003;4.426265e+001
1.334520e+003;4.425923e+001
1.336449e+003;4.425475e+001
1.338377e+003;4.424926e+001
1.340306e+003;4.423957e+001
1.342234e+003;4.422446e+001
1.344163e+003;4.420352e+001
1.346091e+003;4.418049e+001
1.348020e+003;4.415453e+001
1.349948e+003;4.413145e+001
1.351877e+003;4.410658e+001
1.353805e+003;4.407552e+001
1.355734e+003;4.404344e+001
1.357662e+003;4.401067e+001
1.359591e+003;4.397500e+001
1.361519e+003;4.394510e+001
1.363448e+003;4.391751e+001
1.365376e+003;4.389077e+001
1.367305e+003;4.386318e+001
1.369233e+003;4.383266e+001
1.371161e+003;4.380028e+001
1.373090e+003;4.377573e+001
1.375019e+003;4.375639e+001
1.376947e+003;4.373817e+001
1.378875e+003;4.371874e+001
1.380804e+003;4.369474e+001
1.382733e+003;4.366986e+001
1.384661e+003;4.365002e+001
1.386589e+003;4.362865e+001
1.388518e+003;4.361577e+001
1.390447e+003;4.360458e+001
1.392375e+003;4.358478e+001
1.394303e+003;4.356408e+001
1.396232e+003;4.354145e+001
1.398161e+003;4.352112e+001
1.400089e+003;4.350700e+001
1.402017e+003;4.348975e+001
1.403946e+003;4.346795e+001
1.405875e+003;4.344402e+001
1.407803e+003;4.341499e+001
1.409731e+003;4.338411e+001
1.411660e+003;4.335849e+001
1.413589e+003;4.332978e+001
1.415517e+003;4.329484e+001
1.417445e+003;4.325826e+001
1.419374e+003;4.321457e+001
1.421302e+003;4.316938e+001
1.423231e+003;4.312912e+001
1.425159e+003;4.308106e+001
1.427088e+003;4.303334e+001
1.429016e+003;4.298479e+001
1.430945e+003;4.292494e+001
1.432873e+003;4.286724e+001
1.434802e+003;4.280893e+001
1.436730e+003;4.274677e+001
1.438659e+003;4.270970e+001
1.440587e+003;4.267040e+001
1.442516e+003;4.262405e+001
1.444444e+003;4.258756e+001
1.446373e+003;4.255655e+001
1.448301e+003;4.253402e+001
1.450230e+003;4.253320e+001
1.452158e+003;4.253427e+001
1.454087e+003;4.253982e+001
1.456015e+003;4.255925e+001
1.457944e+003;4.257568e+001
1.459872e+003;4.259866e+001
1.461801e+003;4.263654e+001
1.463729e+003;4.266792e+001
1.465658e+003;4.270084e+001
1.467586e+003;4.273216e+001
1.469515e+003;4.275403e+001
1.471443e+003;4.277651e+001
1.473372e+003;4.281360e+001
1.475300e+003;4.284121e+001
1.477229e+003;4.286497e+001
1.479157e+003;4.288272e+001
1.481086e+003;4.289337e+001
1.483014e+003;4.290778e+001
1.484943e+003;4.292122e+001
1.486871e+003;4.293074e+001
1.488800e+003;4.294256e+001
1.490728e+003;4.294585e+001
1.492657e+003;4.294390e+001
1.494585e+003;4.294434e+001
1.496514e+003;4.293868e+001
1.498442e+003;4.293573e+001
1.500371e+003;4.293735e+001
1.502299e+003;4.292654e+001
1.504228e+003;4.290928e+001
1.506156e+003;4.289857e+001
1.508085e+003;4.288554e+001
1.510013e+003;4.287555e+001
1.511942e+003;4.286881e+001
1.513870e+003;4.284873e+001
1.515799e+003;4.283405e+001
1.517727e+003;4.281725e+001
1.519656e+003;4.278675e+001
1.521584e+003;4.276563e+001
1.523513e+003;4.275792e+001
1.525441e+003;4.273978e+001
1.527370e+003;4.272377e+001
1.529298e+003;4.270132e+001
1.531227e+003;4.267628e+001
1.533155e+003;4.265874e+001
1.535084e+003;4.263538e+001
1.537012e+003;4.261368e+001
1.538941e+003;4.260017e+001
1.540869e+003;4.257465e+001
1.542798e+003;4.255437e+001
1.544726e+003;4.253172e+001
1.546655e+003;4.250346e+001
1.548583e+003;4.248326e+001
1.550512e+003;4.246784e+001
1.552440e+003;4.243406e+001
1.554369e+003;4.240721e+001
1.556297e+003;4.238744e+001
1.558226e+003;4.235952e+001
1.560154e+003;4.233221e+001
1.562083e+003;4.232259e+001
1.564011e+003;4.230360e+001
1.565940e+003;4.228645e+001
1.567868e+003;4.226159e+001
1.569797e+003;4.223657e+001
1.571725e+003;4.221716e+001
1.573654e+003;4.218873e+001
1.575582e+003;4.215381e+001
1.577511e+003;4.214204e+001
1.579439e+003;4.212286e+001
1.581368e+003;4.210136e+001
1.583296e+003;4.208245e+001
1.585225e+003;4.205576e+001
1.587153e+003;4.203748e+001
1.589082e+003;4.202048e+001
1.591010e+003;4.199265e+001
1.592939e+003;4.197222e+001
1.594867e+003;4.194891e+001
1.596796e+003;4.192383e+001
1.598724e+003;4.190935e+001
1.600653e+003;4.188858e+001
1.602581e+003;4.186196e+001
1.604510e+003;4.184513e+001
1.606438e+003;4.181905e+001
1.608367e+003;4.179523e+001
1.610295e+003;4.178051e+001
1.612224e+003;4.175673e+001
1.614152e+003;4.173447e+001
1.616081e+003;4.171616e+001
1.618009e+003;4.168518e+001
1.619938e+003;4.166320e+001
1.621866e+003;4.164480e+001
1.623795e+003;4.162012e+001
1.625723e+003;4.160497e+001
1.627652e+003;4.158716e+001
1.629580e+003;4.155909e+001
1.631509e+003;4.154351e+001
1.633437e+003;4.152634e+001
1.635366e+003;4.150644e+001
1.637294e+003;4.149023e+001
1.639223e+003;4.146648e+001
1.641151e+003;4.143933e+001
1.643080e+003;4.142391e+001
1.645008e+003;4.140024e+001
1.646937e+003;4.137709e+001
1.648865e+003;4.136351e+001
1.650794e+003;4.133557e+001
1.652722e+003;4.129909e+001
1.654651e+003;4.129143e+001
1.656579e+003;4.127308e+001
1.658508e+003;4.125567e+001
1.660436e+003;4.123991e+001
1.662365e+003;4.121551e+001
1.664293e+003;4.119730e+001
1.666222e+003;4.117598e+001
1.668150e+003;4.114170e+001
1.670079e+003;4.112422e+001
1.672007e+003;4.110840e+001
1.673936e+003;4.108129e+001
1.675864e+003;4.106585e+001
1.677793e+003;4.104762e+001
1.679721e+003;4.102165e+001
1.681650e+003;4.100563e+001
1.683578e+003;4.098485e+001
1.685507e+003;4.096815e+001
1.687435e+003;4.094806e+001
1.689364e+003;4.092089e+001
1.691292e+003;4.089682e+001
1.693221e+003;4.087823e+001
1.695149e+003;4.085153e+001
1.697078e+003;4.082747e+001
1.699006e+003;4.079473e+001
1.700935e+003;4.076605e+001
1.702863e+003;4.074842e+001
1.704792e+003;4.072259e+001
1.706720e+003;4.068880e+001
1.708649e+003;4.066790e+001
1.710577e+003;4.063906e+001
1.712505e+003;4.060879e+001
1.714434e+003;4.058890e+001
1.716363e+003;4.056100e+001
1.718291e+003;4.052769e+001
1.720219e+003;4.051005e+001
1.722148e+003;4.048765e+001
1.724077e+003;4.047074e+001
1.726005e+003;4.045771e+001
1.727933e+003;4.043369e+001
1.729862e+003;4.041833e+001
1.731791e+003;4.041016e+001
1.733719e+003;4.038949e+001
1.735647e+003;4.038100e+001
1.737576e+003;4.037084e+001
1.739505e+003;4.034970e+001
1.741433e+003;4.033590e+001
1.743361e+003;4.031760e+001
1.745290e+003;4.029534e+001
1.747219e+003;4.028503e+001
1.749147e+003;4.026145e+001
1.751075e+003;4.023508e+001
1.753004e+003;4.022223e+001
1.754932e+003;4.019993e+001
1.756861e+003;4.017630e+001
1.758789e+003;4.016426e+001
1.760718e+003;4.013882e+001
1.762646e+003;4.011913e+001
1.764575e+003;4.010231e+001
1.766503e+003;4.007144e+001
1.768432e+003;4.004813e+001
1.770360e+003;4.003450e+001
1.772289e+003;4.001034e+001
1.774217e+003;3.999480e+001
1.776146e+003;3.997245e+001
1.778074e+003;3.994432e+001
1.780003e+003;3.992792e+001
1.781931e+003;3.990654e+001
1.783860e+003;3.987944e+001
1.785788e+003;3.986715e+001
1.787717e+003;3.984365e+001
1.789645e+003;3.981904e+001
1.791574e+003;3.979823e+001
1.793502e+003;3.977177e+001
1.795431e+003;3.975395e+001
1.797359e+003;3.974235e+001
1.799288e+003;3.971460e+001
1.801216e+003;3.969325e+001
1.803145e+003;3.967467e+001
1.805073e+003;3.964783e+001
1.807002e+003;3.963109e+001
1.808930e+003;3.961464e+001
1.810859e+003;3.958632e+001
1.812787e+003;3.957022e+001
1.814716e+003;3.954749e+001
1.816644e+003;3.951915e+001
1.818573e+003;3.950407e+001
1.820501e+003;3.948343e+001
1.822430e+003;3.945884e+001
1.824358e+003;3.944471e+001
1.826287e+003;3.941639e+001
1.828215e+003;3.939327e+001
1.830144e+003;3.937959e+001
1.832072e+003;3.935397e+001
1.834001e+003;3.933236e+001
1.835929e+003;3.931834e+001
1.837858e+003;3.928984e+001
1.839786e+003;3.927165e+001
1.841715e+003;3.925255e+001
1.843643e+003;3.922358e+001
1.845572e+003;3.920876e+001
1.847500e+003;3.919276e+001
1.849429e+003;3.916312e+001
1.851357e+003;3.914805e+001
1.853286e+003;3.912550e+001
1.855214e+003;3.910113e+001
1.857143e+003;3.908806e+001
1.859071e+003;3.906606e+001
1.861000e+003;3.904163e+001
1.862928e+003;3.902891e+001
1.864857e+003;3.899961e+001
1.866785e+003;3.897639e+001
1.868714e+003;3.896164e+001
1.870642e+003;3.893728e+001
1.872571e+003;3.891999e+001
1.874499e+003;3.890488e+001
1.876428e+003;3.887318e+001
1.878356e+003;3.885747e+001
1.880285e+003;3.884101e+001
1.882213e+003;3.881365e+001
1.884142e+003;3.879886e+001
1.886070e+003;3.877950e+001
1.887999e+003;3.875063e+001
1.889927e+003;3.873837e+001
1.891856e+003;3.871417e+001
1.893784e+003;3.868929e+001
1.895713e+003;3.867903e+001
1.897641e+003;3.865387e+001
1.899570e+003;3.862646e+001
1.901498e+003;3.861525e+001
1.903427e+003;3.858815e+001
1.905355e+003;3.856860e+001
1.907284e+003;3.855462e+001
1.909212e+003;3.852673e+001
1.911141e+003;3.850918e+001
1.913069e+003;3.849472e+001
1.914998e+003;3.846201e+001
1.916926e+003;3.844730e+001
1.918855e+003;3.843130e+001
1.920783e+003;3.840485e+001
1.922712e+003;3.839091e+001
1.924640e+003;3.836822e+001
1.926569e+003;3.833850e+001
1.928497e+003;3.832986e+001
1.930426e+003;3.830654e+001
1.932354e+003;3.828112e+001
1.934283e+003;3.826857e+001
1.936211e+003;3.824327e+001
1.938140e+003;3.822089e+001
1.940068e+003;3.820958e+001
1.941997e+003;3.817950e+001
1.943925e+003;3.816254e+001
1.945854e+003;3.815010e+001
1.947782e+003;3.811937e+001
1.949711e+003;3.810012e+001
1.951639e+003;3.808600e+001
1.953568e+003;3.805688e+001
1.955496e+003;3.804509e+001
1.957425e+003;3.802523e+001
1.959353e+003;3.799657e+001
1.961282e+003;3.798506e+001
1.963210e+003;3.796281e+001
1.965139e+003;3.793269e+001
1.967067e+003;3.792461e+001
1.968996e+003;3.790143e+001
1.970924e+003;3.787849e+001
1.972853e+003;3.786657e+001
1.974781e+003;3.783736e+001
1.976710e+003;3.781539e+001
1.978638e+003;3.780645e+001
1.980567e+003;3.777460e+001
1.982495e+003;3.775779e+001
1.984424e+003;3.774426e+001
1.986352e+003;3.771266e+001
1.988281e+003;3.769667e+001
1.990209e+003;3.768052e+001
1.992138e+003;3.764857e+001
1.994066e+003;3.764048e+001
1.995995e+003;3.762040e+001
1.997923e+003;3.758903e+001
1.999852e+003;3.757740e+001
2.001780e+003;3.755511e+001
2.003709e+003;3.752896e+001
2.005637e+003;3.752166e+001
2.007566e+003;3.749188e+001
2.009494e+003;3.746824e+001
2.011423e+003;3.745901e+001
2.013351e+003;3.742855e+001
2.015280e+003;3.740747e+001
2.017208e+003;3.739894e+001
2.019137e+003;3.736761e+001
2.021065e+003;3.735309e+001
2.022994e+003;3.733704e+001
2.024922e+003;3.730434e+001
2.026851e+003;3.729163e+001
2.028779e+003;3.727496e+001
2.030708e+003;3.724226e+001
2.032636e+003;3.723404e+001
2.034565e+003;3.721149e+001
2.036493e+003;3.718304e+001
2.038422e+003;3.717369e+001
2.040350e+003;3.714795e+001
2.042279e+003;3.712179e+001
2.044207e+003;3.711582e+001
2.046135e+003;3.708402e+001
2.048064e+003;3.706065e+001
2.049992e+003;3.705112e+001
2.051921e+003;3.702157e+001
2.053850e+003;3.700351e+001
2.055778e+003;3.699159e+001
2.057707e+003;3.695707e+001
2.059635e+003;3.694471e+001
2.061563e+003;3.692768e+001
2.063492e+003;3.689471e+001
2.065420e+003;3.688438e+001
2.067349e+003;3.686673e+001
2.069278e+003;3.683502e+001
2.071206e+003;3.682679e+001
2.073135e+003;3.680053e+001
2.075063e+003;3.677361e+001
2.076991e+003;3.676718e+001
2.078920e+003;3.674099e+001
2.080848e+003;3.671520e+001
2.082777e+003;3.670782e+001
2.084706e+003;3.667613e+001
2.086634e+003;3.665706e+001
2.088563e+003;3.664478e+001
2.090491e+003;3.661343e+001
2.092419e+003;3.660017e+001
2.094348e+003;3.658819e+001
2.096276e+003;3.655109e+001
2.098205e+003;3.653896e+001
2.100134e+003;3.652249e+001
2.102062e+003;3.649437e+001
2.103990e+003;3.648567e+001
2.105919e+003;3.646225e+001
2.107847e+003;3.643100e+001
2.109776e+003;3.642628e+001
2.111704e+003;3.639957e+001
2.113633e+003;3.637475e+001
2.115562e+003;3.636765e+001
2.117490e+003;3.634032e+001
2.119418e+003;3.631891e+001
2.121347e+003;3.630986e+001
2.123275e+003;3.627561e+001
2.125204e+003;3.626185e+001
2.127132e+003;3.625195e+001
2.129061e+003;3.621900e+001
2.130990e+003;3.620415e+001
2.132918e+003;3.619070e+001
2.134846e+003;3.615854e+001
2.136775e+003;3.615097e+001
2.138703e+003;3.613096e+001
2.140632e+003;3.610185e+001
2.142560e+003;3.609496e+001
2.144489e+003;3.607174e+001
2.146417e+003;3.604259e+001
2.148346e+003;3.603806e+001
2.150274e+003;3.601152e+001
2.152203e+003;3.599029e+001
2.154131e+003;3.598102e+001
2.156060e+003;3.595061e+001
2.157988e+003;3.593275e+001
2.159917e+003;3.592566e+001
2.161845e+003;3.589233e+001
2.163774e+003;3.587934e+001
2.165702e+003;3.586630e+001
2.167631e+003;3.583572e+001
2.169559e+003;3.582487e+001
2.171488e+003;3.580806e+001
2.173416e+003;3.577543e+001
2.175345e+003;3.577096e+001
2.177273e+003;3.575052e+001
2.179202e+003;3.572222e+001
2.181130e+003;3.571421e+001
2.183059e+003;3.569108e+001
2.184987e+003;3.566632e+001
2.186916e+003;3.566073e+001
2.188844e+003;3.563203e+001
2.190773e+003;3.561402e+001
2.192701e+003;3.560578e+001
2.194630e+003;3.557490e+001
2.196558e+003;3.555703e+001
2.198487e+003;3.554870e+001
2.200415e+003;3.551743e+001
2.202344e+003;3.550555e+001
2.204272e+003;3.548976e+001
2.206201e+003;3.545972e+001
2.208129e+003;3.544957e+001
2.210058e+003;3.543278e+001
2.211986e+003;3.540195e+001
2.213915e+003;3.539523e+001
2.215843e+003;3.537271e+001
2.217772e+003;3.534539e+001
2.219700e+003;3.533577e+001
2.221629e+003;3.530964e+001
2.223557e+003;3.528441e+001
2.225486e+003;3.527951e+001
2.227414e+003;3.524834e+001
2.229343e+003;3.522708e+001
2.231271e+003;3.521684e+001
2.233200e+003;3.518668e+001
2.235128e+003;3.516957e+001
2.237057e+003;3.515824e+001
2.238985e+003;3.512231e+001
2.240914e+003;3.511036e+001
2.242842e+003;3.509444e+001
2.244771e+003;3.506116e+001
2.246699e+003;3.505044e+001
2.248628e+003;3.503240e+001
2.250556e+003;3.500047e+001
2.252485e+003;3.499482e+001
2.254413e+003;3.496770e+001
2.256342e+003;3.493816e+001
2.258270e+003;3.493284e+001
2.260199e+003;3.490581e+001
2.262127e+003;3.488000e+001
2.264056e+003;3.487523e+001
2.265984e+003;3.484198e+001
2.267913e+003;3.482330e+001
2.269841e+003;3.481416e+001
2.271770e+003;3.478067e+001
2.273698e+003;3.476640e+001
2.275627e+003;3.475670e+001
2.277555e+003;3.471936e+001
2.279484e+003;3.471024e+001
2.281412e+003;3.469397e+001
2.283341e+003;3.466279e+001
2.285269e+003;3.465613e+001
2.287198e+003;3.463474e+001
2.289126e+003;3.460194e+001
2.291055e+003;3.459935e+001
2.292983e+003;3.457185e+001
2.294912e+003;3.454664e+001
2.296840e+003;3.454307e+001
2.298769e+003;3.451415e+001
2.300697e+003;3.449216e+001
2.302626e+003;3.448624e+001
2.304554e+003;3.444995e+001
2.306483e+003;3.443552e+001
2.308411e+003;3.442623e+001
2.310340e+003;3.439147e+001
2.312268e+003;3.437914e+001
2.314197e+003;3.436581e+001
2.316125e+003;3.433014e+001
2.318054e+003;3.432567e+001
2.319982e+003;3.430424e+001
2.321911e+003;3.427300e+001
2.323839e+003;3.427105e+001
2.325768e+003;3.424715e+001
2.327696e+003;3.421540e+001
2.329625e+003;3.421458e+001
2.331553e+003;3.418531e+001
2.333482e+003;3.416282e+001
2.335410e+003;3.415722e+001
2.337339e+003;3.412449e+001
2.339267e+003;3.410728e+001
2.341196e+003;3.410253e+001
2.343124e+003;3.406527e+001
2.345053e+003;3.405553e+001
2.346981e+003;3.404391e+001
2.348910e+003;3.401033e+001
2.350838e+003;3.400235e+001
2.352767e+003;3.398581e+001
2.354695e+003;3.395210e+001
2.356624e+003;3.395230e+001
2.358552e+003;3.392986e+001
2.360481e+003;3.390078e+001
2.362409e+003;3.389738e+001
2.364338e+003;3.386810e+001
2.366266e+003;3.384128e+001
2.368195e+003;3.384137e+001
2.370123e+003;3.380679e+001
2.372052e+003;3.378996e+001
2.373980e+003;3.378581e+001
2.375908e+003;3.374886e+001
2.377837e+003;3.373451e+001
2.379766e+003;3.372814e+001
2.381694e+003;3.369014e+001
2.383623e+003;3.368538e+001
2.385551e+003;3.366953e+001
2.387479e+003;3.363363e+001
2.389408e+003;3.363128e+001
2.391336e+003;3.361251e+001
2.393265e+003;3.357749e+001
2.395194e+003;3.357939e+001
2.397122e+003;3.355170e+001
2.399051e+003;3.352485e+001
2.400979e+003;3.352446e+001
2.402907e+003;3.349137e+001
2.404836e+003;3.346959e+001
2.406764e+003;3.347232e+001
2.408693e+003;3.343377e+001
2.410622e+003;3.341896e+001
2.412550e+003;3.341389e+001
2.414479e+003;3.337638e+001
2.416407e+003;3.336770e+001
2.418335e+003;3.335936e+001
2.420264e+003;3.331863e+001
2.422192e+003;3.331764e+001
2.424121e+003;3.330049e+001
2.426050e+003;3.326360e+001
2.427978e+003;3.326460e+001
2.429906e+003;3.324362e+001
2.431835e+003;3.321000e+001
2.433763e+003;3.321369e+001
2.435692e+003;3.318131e+001
2.437620e+003;3.315659e+001
2.439549e+003;3.315957e+001
2.441478e+003;3.312481e+001
2.443406e+003;3.310404e+001
2.445334e+003;3.310568e+001
2.447263e+003;3.306544e+001
2.449191e+003;3.305475e+001
2.451120e+003;3.304857e+001
2.453048e+003;3.300872e+001
2.454977e+003;3.300254e+001
2.456906e+003;3.299350e+001
2.458834e+003;3.295275e+001
2.460762e+003;3.295323e+001
2.462691e+003;3.293411e+001
2.464619e+003;3.290005e+001
2.466548e+003;3.290085e+001
2.468476e+003;3.287492e+001
2.470405e+003;3.284375e+001
2.472333e+003;3.284970e+001
2.474262e+003;3.281683e+001
2.476190e+003;3.279376e+001
2.478119e+003;3.279486e+001
2.480047e+003;3.276146e+001
2.481976e+003;3.274436e+001
2.483904e+003;3.274173e+001
2.485833e+003;3.270103e+001
2.487761e+003;3.269358e+001
2.489690e+003;3.268527e+001
2.491618e+003;3.264759e+001
2.493547e+003;3.264191e+001
2.495475e+003;3.262794e+001
2.497404e+003;3.259183e+001
2.499332e+003;3.259445e+001
2.501261e+003;3.257035e+001
2.503189e+003;3.253974e+001
2.505118e+003;3.254131e+001
2.507046e+003;3.251422e+001
2.508975e+003;3.248781e+001
2.510903e+003;3.248947e+001
2.512832e+003;3.245531e+001
2.514760e+003;3.244125e+001
2.516689e+003;3.243780e+001
2.518617e+003;3.240152e+001
2.520546e+003;3.239076e+001
2.522474e+003;3.238564e+001
2.524403e+003;3.234684e+001
2.526331e+003;3.234258e+001
2.528260e+003;3.232742e+001
2.530188e+003;3.229441e+001
2.532117e+003;3.229249e+001
2.534045e+003;3.226940e+001
2.535974e+003;3.223664e+001
2.537902e+003;3.224171e+001
2.539831e+003;3.221122e+001
2.541759e+003;3.218551e+001
2.543688e+003;3.218697e+001
2.545616e+003;3.215337e+001
2.547545e+003;3.213426e+001
2.549473e+003;3.213620e+001
2.551402e+003;3.209497e+001
2.553330e+003;3.208561e+001
2.555259e+003;3.208107e+001
2.557187e+003;3.203960e+001
2.559116e+003;3.203338e+001
2.561044e+003;3.202537e+001
2.562973e+003;3.198593e+001
2.564901e+003;3.198914e+001
2.566830e+003;3.196860e+001
2.568758e+003;3.193279e+001
2.570687e+003;3.193913e+001
2.572615e+003;3.191511e+001
2.574544e+003;3.188211e+001
2.576472e+003;3.188996e+001
2.578401e+003;3.185658e+001
2.580329e+003;3.183430e+001
2.582258e+003;3.183792e+001
2.584186e+003;3.180026e+001
2.586115e+003;3.178293e+001
2.588043e+003;3.178744e+001
2.589972e+003;3.174488e+001
2.591900e+003;3.173652e+001
2.593829e+003;3.173177e+001
2.595757e+003;3.169191e+001
2.597686e+003;3.168876e+001
2.599614e+003;3.167780e+001
2.601543e+003;3.163564e+001
2.603471e+003;3.164036e+001
2.605400e+003;3.162191e+001
2.607328e+003;3.158671e+001
2.609257e+003;3.158922e+001
2.611185e+003;3.156604e+001
2.613114e+003;3.153744e+001
2.615042e+003;3.154322e+001
2.616971e+003;3.150739e+001
2.618899e+003;3.148692e+001
2.620828e+003;3.148870e+001
2.622756e+003;3.145267e+001
2.624685e+003;3.143718e+001
2.626613e+003;3.143748e+001
2.628542e+003;3.139844e+001
2.630470e+003;3.139156e+001
2.632399e+003;3.138028e+001
2.634327e+003;3.134438e+001
2.636256e+003;3.134250e+001
2.638184e+003;3.132833e+001
2.640113e+003;3.129233e+001
2.642041e+003;3.129377e+001
2.643970e+003;3.126952e+001
2.645898e+003;3.124387e+001
2.647827e+003;3.124551e+001
2.649755e+003;3.121537e+001
2.651684e+003;3.119187e+001
2.653612e+003;3.119596e+001
2.655541e+003;3.116024e+001
2.657469e+003;3.114589e+001
2.659398e+003;3.114094e+001
2.661326e+003;3.110595e+001
2.663255e+003;3.109807e+001
2.665183e+003;3.108935e+001
2.667112e+003;3.105077e+001
2.669040e+003;3.105290e+001
2.670969e+003;3.103528e+001
2.672897e+003;3.099954e+001
2.674826e+003;3.100082e+001
2.676754e+003;3.097907e+001
2.678683e+003;3.094868e+001
2.680611e+003;3.095469e+001
2.682540e+003;3.092173e+001
2.684468e+003;3.090048e+001
2.686397e+003;3.090527e+001
2.688325e+003;3.086964e+001
2.690254e+003;3.085150e+001
2.692182e+003;3.085451e+001
2.694111e+003;3.081381e+001
2.696039e+003;3.080852e+001
2.697968e+003;3.080276e+001
2.699896e+003;3.076158e+001
2.701825e+003;3.076044e+001
2.703753e+003;3.075169e+001
2.705682e+003;3.070838e+001
2.707610e+003;3.071237e+001
2.709539e+003;3.069391e+001
2.711467e+003;3.066039e+001
2.713396e+003;3.066641e+001
2.715324e+003;3.064126e+001
2.717253e+003;3.061054e+001
2.719181e+003;3.062121e+001
2.721110e+003;3.058703e+001
2.723038e+003;3.056345e+001
2.724967e+003;3.056736e+001
2.726895e+003;3.053363e+001
2.728823e+003;3.051738e+001
2.730752e+003;3.051907e+001
2.732681e+003;3.047820e+001
2.734609e+003;3.047229e+001
2.736538e+003;3.046687e+001
2.738466e+003;3.042885e+001
2.740395e+003;3.042446e+001
2.742323e+003;3.041427e+001
2.744251e+003;3.037890e+001
2.746180e+003;3.038128e+001
2.748109e+003;3.035779e+001
2.750037e+003;3.032724e+001
2.751966e+003;3.033153e+001
2.753894e+003;3.030846e+001
2.755823e+003;3.028113e+001
2.757751e+003;3.028392e+001
2.759679e+003;3.025289e+001
2.761608e+003;3.023846e+001
2.763537e+003;3.023492e+001
2.765465e+003;3.020094e+001
2.767394e+003;3.019065e+001
2.769322e+003;3.018610e+001
2.771250e+003;3.014911e+001
2.773179e+003;3.014583e+001
2.775107e+003;3.013184e+001
2.777036e+003;3.010199e+001
2.778965e+003;3.010120e+001
2.780893e+003;3.008050e+001
2.782822e+003;3.005064e+001
2.784750e+003;3.005657e+001
2.786678e+003;3.002653e+001
2.788607e+003;3.000352e+001
2.790535e+003;3.000518e+001
2.792464e+003;2.997454e+001
2.794393e+003;2.995928e+001
2.796321e+003;2.996091e+001
2.798250e+003;2.991938e+001
2.800178e+003;2.991296e+001
2.802106e+003;2.990951e+001
2.804035e+003;2.987062e+001
2.805963e+003;2.986633e+001
2.807892e+003;2.985827e+001
2.809821e+003;2.982084e+001
2.811749e+003;2.982609e+001
2.813677e+003;2.980505e+001
2.815606e+003;2.977168e+001
2.817534e+003;2.977952e+001
2.819463e+003;2.975636e+001
2.821391e+003;2.972403e+001
2.823320e+003;2.973176e+001
2.825249e+003;2.970004e+001
2.827177e+003;2.968089e+001
2.829105e+003;2.968555e+001
2.831034e+003;2.964913e+001
2.832962e+003;2.963260e+001
2.834891e+003;2.963850e+001
2.836819e+003;2.959868e+001
2.838748e+003;2.959116e+001
2.840677e+003;2.958537e+001
2.842605e+003;2.954827e+001
2.844533e+003;2.954478e+001
2.846462e+003;2.953400e+001
2.848390e+003;2.949525e+001
2.850319e+003;2.950100e+001
2.852247e+003;2.948441e+001
2.854176e+003;2.945303e+001
2.856104e+003;2.945339e+001
2.858033e+003;2.943173e+001
2.859961e+003;2.940683e+001
2.861890e+003;2.940984e+001
2.863818e+003;2.937756e+001
2.865747e+003;2.936188e+001
2.867675e+003;2.936258e+001
2.869604e+003;2.933158e+001
2.871532e+003;2.931711e+001
2.873461e+003;2.931277e+001
2.875389e+003;2.927962e+001
2.877318e+003;2.927673e+001
2.879246e+003;2.926145e+001
2.881175e+003;2.923033e+001
2.883103e+003;2.923113e+001
2.885032e+003;2.921603e+001
2.886960e+003;2.918615e+001
2.888889e+003;2.918732e+001
2.890817e+003;2.916027e+001
2.892746e+003;2.914234e+001
2.894674e+003;2.914401e+001
2.896603e+003;2.911177e+001
2.898531e+003;2.909392e+001
2.900460e+003;2.909736e+001
2.902388e+003;2.906115e+001
2.904317e+003;2.905191e+001
2.906245e+003;2.904543e+001
2.908174e+003;2.901230e+001
2.910102e+003;2.901020e+001
2.912031e+003;2.899936e+001
2.913959e+003;2.896069e+001
2.915888e+003;2.896615e+001
2.917816e+003;2.894890e+001
2.919745e+003;2.891421e+001
2.921673e+003;2.891591e+001
2.923602e+003;2.889491e+001
2.925530e+003;2.886629e+001
2.927459e+003;2.887428e+001
2.929387e+003;2.884088e+001
2.931316e+003;2.881869e+001
2.933244e+003;2.882515e+001
2.935173e+003;2.879507e+001
2.937101e+003;2.877646e+001
2.939030e+003;2.877831e+001
2.940958e+003;2.874282e+001
2.942887e+003;2.873895e+001
2.944815e+003;2.873395e+001
2.946744e+003;2.869551e+001
2.948672e+003;2.869133e+001
2.950601e+003;2.868694e+001
2.952529e+003;2.865075e+001
2.954458e+003;2.864927e+001
2.956386e+003;2.863120e+001
2.958315e+003;2.860483e+001
2.960243e+003;2.860564e+001
2.962172e+003;2.858109e+001
2.964100e+003;2.855437e+001
2.966029e+003;2.856056e+001
2.967957e+003;2.853338e+001
2.969886e+003;2.851616e+001
2.971814e+003;2.851278e+001
2.973743e+003;2.848542e+001
2.975671e+003;2.847494e+001
2.977600e+003;2.847008e+001
2.979528e+003;2.843570e+001
2.981457e+003;2.843317e+001
2.983385e+003;2.842226e+001
2.985314e+003;2.839400e+001
2.987242e+003;2.839041e+001
2.989171e+003;2.837384e+001
2.991099e+003;2.834966e+001
2.993028e+003;2.835394e+001
2.994956e+003;2.832357e+001
2.996885e+003;2.830244e+001
2.998813e+003;2.830673e+001
3.000742e+003;2.827868e+001
3.002670e+003;2.825970e+001
3.004599e+003;2.826192e+001
3.006527e+003;2.822879e+001
3.008456e+003;2.822414e+001
3.010384e+003;2.821865e+001
3.012313e+003;2.818219e+001
3.014241e+003;2.817987e+001
3.016170e+003;2.817546e+001
3.018098e+003;2.813693e+001
3.020027e+003;2.813762e+001
3.021955e+003;2.812190e+001
3.023884e+003;2.809316e+001
3.025812e+003;2.809840e+001
3.027741e+003;2.807751e+001
3.029669e+003;2.804754e+001
3.031598e+003;2.805819e+001
3.033526e+003;2.803084e+001
3.035455e+003;2.800729e+001
3.037383e+003;2.800830e+001
3.039312e+003;2.798129e+001
3.041240e+003;2.796787e+001
3.043169e+003;2.797021e+001
3.045097e+003;2.793177e+001
3.047026e+003;2.792378e+001
3.048954e+003;2.792252e+001
3.050883e+003;2.789086e+001
3.052811e+003;2.788101e+001
3.054740e+003;2.787294e+001
3.056668e+003;2.784404e+001
3.058597e+003;2.784621e+001
3.060525e+003;2.782711e+001
3.062454e+003;2.780037e+001
3.064382e+003;2.780238e+001
3.066311e+003;2.778488e+001
3.068239e+003;2.775953e+001
3.070167e+003;2.775777e+001
3.072096e+003;2.773126e+001
3.074025e+003;2.772111e+001
3.075953e+003;2.771689e+001
3.077882e+003;2.768783e+001
3.079810e+003;2.767720e+001
3.081739e+003;2.767481e+001
3.083667e+003;2.764497e+001
3.085595e+003;2.763897e+001
3.087524e+003;2.762257e+001
3.089453e+003;2.759888e+001
3.091381e+003;2.760002e+001
3.093310e+003;2.757956e+001
3.095238e+003;2.755045e+001
3.097167e+003;2.755741e+001
3.099095e+003;2.753363e+001
3.101023e+003;2.751283e+001
3.102952e+003;2.751258e+001
3.104881e+003;2.748635e+001
3.106809e+003;2.747369e+001
3.108738e+003;2.747637e+001
3.110666e+003;2.743768e+001
3.112594e+003;2.743118e+001
3.114523e+003;2.743200e+001
3.116451e+003;2.739987e+001
3.118380e+003;2.739201e+001
3.120309e+003;2.738531e+001
3.122237e+003;2.735134e+001
3.124166e+003;2.735472e+001
3.126094e+003;2.733871e+001
3.128022e+003;2.730777e+001
3.129951e+003;2.731098e+001
3.131879e+003;2.729668e+001
3.133808e+003;2.726722e+001
3.135737e+003;2.727023e+001
3.137665e+003;2.724736e+001
3.139594e+003;2.723198e+001
3.141522e+003;2.723272e+001
3.143450e+003;2.720298e+001
3.145379e+003;2.718469e+001
3.147307e+003;2.718984e+001
3.149236e+003;2.716184e+001
3.151165e+003;2.715170e+001
3.153093e+003;2.714228e+001
3.155021e+003;2.711724e+001
3.156950e+003;2.711296e+001
3.158878e+003;2.710210e+001
3.160807e+003;2.707177e+001
3.162735e+003;2.707273e+001
3.164664e+003;2.705728e+001
3.166593e+003;2.703464e+001
3.168521e+003;2.702943e+001
3.170449e+003;2.701036e+001
3.172378e+003;2.699474e+001
3.174306e+003;2.699373e+001
3.176235e+003;2.696317e+001
3.178163e+003;2.695312e+001
3.180092e+003;2.695021e+001
3.182021e+003;2.692599e+001
3.183949e+003;2.691559e+001
3.185877e+003;2.690672e+001
3.187806e+003;2.687942e+001
3.189734e+003;2.688233e+001
3.191663e+003;2.686497e+001
3.193591e+003;2.683752e+001
3.195520e+003;2.683917e+001
3.197448e+003;2.682566e+001
3.199377e+003;2.679954e+001
3.201305e+003;2.680106e+001
3.203234e+003;2.677569e+001
3.205162e+003;2.676142e+001
3.207091e+003;2.676348e+001
3.209019e+003;2.673479e+001
3.210948e+003;2.671756e+001
3.212876e+003;2.672406e+001
3.214805e+003;2.669448e+001
3.216733e+003;2.668361e+001
3.218662e+003;2.667904e+001
3.220590e+003;2.665271e+001
3.222519e+003;2.664775e+001
3.224447e+003;2.664128e+001
3.226376e+003;2.660820e+001
3.228304e+003;2.660891e+001
3.230233e+003;2.659956e+001
3.232161e+003;2.657626e+001
3.234090e+003;2.657051e+001
3.236018e+003;2.655565e+001
3.237947e+003;2.653549e+001
3.239875e+003;2.653791e+001
3.241804e+003;2.651235e+001
3.243732e+003;2.649494e+001
3.245661e+003;2.649517e+001
3.247589e+003;2.647581e+001
3.249518e+003;2.645747e+001
3.251446e+003;2.645200e+001
3.253375e+003;2.642868e+001
3.255303e+003;2.642397e+001
3.257232e+003;2.641192e+001
3.259160e+003;2.638667e+001
3.261089e+003;2.638073e+001
3.263017e+003;2.637359e+001
3.264946e+003;2.635039e+001
3.266874e+003;2.634652e+001
3.268803e+003;2.632697e+001
3.270731e+003;2.631413e+001
3.272660e+003;2.631083e+001
3.274588e+003;2.628724e+001
3.276517e+003;2.627067e+001
3.278445e+003;2.627253e+001
3.280374e+003;2.624797e+001
3.282302e+003;2.623724e+001
3.284231e+003;2.622832e+001
3.286159e+003;2.620561e+001
3.288088e+003;2.620156e+001
3.290016e+003;2.619497e+001
3.291945e+003;2.616337e+001
3.293873e+003;2.616442e+001
3.295802e+003;2.615459e+001
3.297730e+003;2.612968e+001
3.299659e+003;2.612486e+001
3.301587e+003;2.611165e+001
3.303516e+003;2.609226e+001
3.305444e+003;2.609689e+001
3.307373e+003;2.607054e+001
3.309301e+003;2.604964e+001
3.311230e+003;2.605096e+001
3.313158e+003;2.603316e+001
3.315087e+003;2.601599e+001
3.317015e+003;2.601435e+001
3.318944e+003;2.598905e+001
3.320872e+003;2.598146e+001
3.322801e+003;2.597476e+001
3.324729e+003;2.595033e+001
3.326658e+003;2.594012e+001
3.328586e+003;2.593592e+001
3.330515e+003;2.591294e+001
3.332443e+003;2.590662e+001
3.334372e+003;2.589054e+001
3.336300e+003;2.587486e+001
3.338229e+003;2.587131e+001
3.340157e+003;2.585586e+001
3.342086e+003;2.583451e+001
3.344014e+003;2.583308e+001
3.345943e+003;2.581518e+001
3.347871e+003;2.580218e+001
3.349800e+003;2.579168e+001
3.351728e+003;2.577429e+001
3.353657e+003;2.576638e+001
3.355585e+003;2.575943e+001
3.357514e+003;2.573346e+001
3.359442e+003;2.572743e+001
3.361371e+003;2.571561e+001
3.363299e+003;2.569909e+001
3.365228e+003;2.569265e+001
3.367156e+003;2.567811e+001
3.369085e+003;2.566088e+001
3.371013e+003;2.566245e+001
3.372942e+003;2.563891e+001
3.374870e+003;2.562233e+001
3.376799e+003;2.562057e+001
3.378727e+003;2.560394e+001
3.380656e+003;2.558751e+001
3.382584e+003;2.558174e+001
3.384513e+003;2.555674e+001
3.386441e+003;2.555335e+001
3.388370e+003;2.554800e+001
3.390298e+003;2.552366e+001
3.392227e+003;2.551402e+001
3.394155e+003;2.551088e+001
3.396083e+003;2.548651e+001
3.398012e+003;2.548094e+001
3.399941e+003;2.546697e+001
3.401869e+003;2.544996e+001
3.403798e+003;2.544735e+001
3.405726e+003;2.543361e+001
3.407655e+003;2.540918e+001
3.409583e+003;2.540871e+001
3.411511e+003;2.539571e+001
3.413440e+003;2.538157e+001
3.415369e+003;2.537005e+001
3.417297e+003;2.535399e+001
3.419226e+003;2.534343e+001
3.421154e+003;2.534034e+001
3.423083e+003;2.531691e+001
3.425011e+003;2.530651e+001
3.426939e+003;2.529959e+001
3.428868e+003;2.528605e+001
3.430797e+003;2.527081e+001
3.432725e+003;2.525628e+001
3.434654e+003;2.524289e+001
3.436582e+003;2.524251e+001
3.438510e+003;2.522202e+001
3.440439e+003;2.520483e+001
3.442367e+003;2.519868e+001
3.444296e+003;2.519029e+001
3.446225e+003;2.517708e+001
3.448153e+003;2.516602e+001
3.450082e+003;2.514384e+001
3.452010e+003;2.514123e+001
3.453938e+003;2.513311e+001
3.455867e+003;2.511134e+001
3.457795e+003;2.509991e+001
3.459724e+003;2.509546e+001
3.461653e+003;2.507681e+001
3.463581e+003;2.507094e+001
3.465510e+003;2.505441e+001
3.467438e+003;2.504226e+001
3.469366e+003;2.504070e+001
3.471295e+003;2.502534e+001
3.473223e+003;2.500119e+001
3.475152e+003;2.500165e+001
3.477081e+003;2.498918e+001
3.479009e+003;2.497626e+001
3.480938e+003;2.496487e+001
3.482866e+003;2.494924e+001
3.484794e+003;2.493927e+001
3.486723e+003;2.493718e+001
3.488651e+003;2.491455e+001
3.490580e+003;2.490465e+001
3.492509e+003;2.489898e+001
3.494437e+003;2.488735e+001
3.496365e+003;2.487395e+001
3.498294e+003;2.486269e+001
3.500222e+003;2.484703e+001
3.502151e+003;2.484522e+001
3.504079e+003;2.482877e+001
3.506008e+003;2.481169e+001
3.507937e+003;2.480370e+001
3.509865e+003;2.479755e+001
3.511793e+003;2.478506e+001
3.513722e+003;2.477336e+001
3.515650e+003;2.475553e+001
3.517579e+003;2.475199e+001
3.519507e+003;2.474254e+001
3.521436e+003;2.472670e+001
3.523365e+003;2.471232e+001
3.525293e+003;2.470599e+001
3.527221e+003;2.469465e+001
3.529150e+003;2.468682e+001
3.531078e+003;2.466772e+001
3.533007e+003;2.465949e+001
3.534935e+003;2.465589e+001
3.536864e+003;2.464141e+001
3.538792e+003;2.462149e+001
3.540721e+003;2.461602e+001
3.542649e+003;2.460429e+001
3.544578e+003;2.459704e+001
3.546506e+003;2.458272e+001
3.548435e+003;2.456761e+001
3.550363e+003;2.456103e+001
3.552292e+003;2.455752e+001
3.554220e+003;2.453546e+001
3.556149e+003;2.452668e+001
3.558077e+003;2.451932e+001
3.560006e+003;2.450973e+001
3.561934e+003;2.449677e+001
3.563863e+003;2.448285e+001
3.565791e+003;2.446872e+001
3.567720e+003;2.446885e+001
3.569648e+003;2.445593e+001
3.571577e+003;2.443833e+001
3.573505e+003;2.442718e+001
3.575434e+003;2.442351e+001
3.577362e+003;2.441171e+001
3.579291e+003;2.439954e+001
3.581219e+003;2.438321e+001
3.583148e+003;2.437916e+001
3.585076e+003;2.437012e+001
3.587005e+003;2.435619e+001
3.588933e+003;2.434060e+001
3.590862e+003;2.433522e+001
3.592790e+003;2.432751e+001
3.594719e+003;2.431684e+001
3.596647e+003;2.429613e+001
3.598576e+003;2.429111e+001
3.600504e+003;2.428709e+001
3.602433e+003;2.427627e+001
3.604361e+003;2.425864e+001
3.606290e+003;2.424856e+001
3.608218e+003;2.424015e+001
3.610147e+003;2.423686e+001
3.612075e+003;2.421858e+001
3.614004e+003;2.420352e+001
3.615932e+003;2.419820e+001
3.617861e+003;2.419381e+001
3.619789e+003;2.417664e+001
3.621718e+003;2.416729e+001
3.623646e+003;2.415567e+001
3.625575e+003;2.415156e+001
3.627503e+003;2.413878e+001
3.629432e+003;2.412281e+001
3.631360e+003;2.411321e+001
3.633289e+003;2.411330e+001
3.635217e+003;2.409866e+001
3.637146e+003;2.408566e+001
3.639074e+003;2.407208e+001
3.641003e+003;2.406745e+001
3.642931e+003;2.406090e+001
3.644860e+003;2.404766e+001
3.646788e+003;2.402747e+001
3.648717e+003;2.402397e+001
3.650645e+003;2.401658e+001
3.652574e+003;2.400765e+001
3.654502e+003;2.399244e+001
3.656431e+003;2.398435e+001
3.658359e+003;2.398007e+001
3.660288e+003;2.397272e+001
3.662216e+003;2.395119e+001
3.664145e+003;2.394485e+001
3.666073e+003;2.393952e+001
3.668002e+003;2.392941e+001
3.669930e+003;2.391331e+001
3.671859e+003;2.390294e+001
3.673787e+003;2.389465e+001
3.675716e+003;2.389314e+001
3.677644e+003;2.387587e+001
3.679573e+003;2.386444e+001
3.681501e+003;2.386151e+001
3.683430e+003;2.385519e+001
3.685358e+003;2.383963e+001
3.687287e+003;2.382630e+001
3.689215e+003;2.381041e+001
3.691144e+003;2.381212e+001
3.693072e+003;2.380303e+001
3.695001e+003;2.378529e+001
3.696929e+003;2.377605e+001
3.698858e+003;2.377511e+001
3.700786e+003;2.376101e+001
3.702715e+003;2.375227e+001
3.704643e+003;2.373489e+001
3.706572e+003;2.372893e+001
3.708500e+003;2.372677e+001
3.710429e+003;2.371007e+001
3.712357e+003;2.369120e+001
3.714286e+003;2.369342e+001
3.716214e+003;2.368313e+001
3.718143e+003;2.367396e+001
3.720071e+003;2.365976e+001
3.722000e+003;2.364714e+001
3.723928e+003;2.364661e+001
3.725857e+003;2.364140e+001
3.727785e+003;2.361643e+001
3.729714e+003;2.361188e+001
3.731642e+003;2.360624e+001
3.733571e+003;2.359838e+001
3.735499e+003;2.358787e+001
3.737427e+003;2.357253e+001
3.739356e+003;2.356229e+001
3.741285e+003;2.356677e+001
3.743213e+003;2.354219e+001
3.745142e+003;2.352658e+001
3.747070e+003;2.352475e+001
3.748999e+003;2.351514e+001
3.750927e+003;2.350312e+001
3.752855e+003;2.349473e+001
3.754784e+003;2.347708e+001
3.756713e+003;2.348039e+001
3.758641e+003;2.347243e+001
3.760570e+003;2.344947e+001
3.762498e+003;2.344168e+001
3.764427e+003;2.344138e+001
3.766355e+003;2.342727e+001
3.768283e+003;2.341975e+001
3.770212e+003;2.340048e+001
3.772141e+003;2.339501e+001
3.774069e+003;2.339737e+001
3.775998e+003;2.338037e+001
3.777926e+003;2.336090e+001
3.779854e+003;2.336408e+001
3.781783e+003;2.335215e+001
3.783711e+003;2.334585e+001
3.785640e+003;2.333228e+001
3.787569e+003;2.331477e+001
3.789497e+003;2.331614e+001
3.791426e+003;2.331327e+001
3.793354e+003;2.328605e+001
3.795282e+003;2.328328e+001
3.797211e+003;2.327773e+001
3.799139e+003;2.326675e+001
3.801068e+003;2.325741e+001
3.802997e+003;2.324028e+001
3.804925e+003;2.322930e+001
3.806854e+003;2.323914e+001
3.808782e+003;2.321815e+001
3.810710e+003;2.320358e+001
3.812639e+003;2.320531e+001
3.814567e+003;2.319420e+001
3.816496e+003;2.318276e+001
3.818425e+003;2.317499e+001
3.820353e+003;2.315052e+001
3.822281e+003;2.315801e+001
3.824210e+003;2.315499e+001
3.826138e+003;2.312933e+001
3.828067e+003;2.312283e+001
3.829995e+003;2.312371e+001
3.831924e+003;2.310591e+001
3.833853e+003;2.310232e+001
3.835781e+003;2.308233e+001
3.837709e+003;2.307367e+001
3.839638e+003;2.308251e+001
3.841566e+003;2.306764e+001
3.843495e+003;2.304540e+001
3.845423e+003;2.304980e+001
3.847352e+003;2.303695e+001
3.849281e+003;2.303035e+001
3.851209e+003;2.301687e+001
3.853137e+003;2.299633e+001
3.855066e+003;2.300044e+001
3.856994e+003;2.300370e+001
3.858923e+003;2.297516e+001
3.860851e+003;2.297228e+001
3.862780e+003;2.296749e+001
3.864708e+003;2.295751e+001
3.866637e+003;2.295298e+001
3.868565e+003;2.293252e+001
3.870494e+003;2.291898e+001
3.872422e+003;2.293327e+001
3.874351e+003;2.291102e+001
3.876279e+003;2.289506e+001
3.878208e+003;2.289613e+001
3.880136e+003;2.288398e+001
3.882065e+003;2.287807e+001
3.883993e+003;2.287304e+001
3.885922e+003;2.284404e+001
3.887850e+003;2.285318e+001
3.889779e+003;2.285122e+001
3.891707e+003;2.282253e+001
3.893636e+003;2.281944e+001
3.895564e+003;2.281927e+001
3.897493e+003;2.279996e+001
3.899421e+003;2.280292e+001
3.901350e+003;2.278127e+001
3.903278e+003;2.276849e+001
3.905207e+003;2.278203e+001
3.907135e+003;2.276439e+001
3.909064e+003;2.274103e+001
3.910992e+003;2.275055e+001
3.912921e+003;2.273535e+001
3.914849e+003;2.273086e+001
3.916778e+003;2.272330e+001
3.918706e+003;2.269900e+001
3.920635e+003;2.270079e+001
3.922563e+003;2.270622e+001
3.924492e+003;2.267552e+001
3.926420e+003;2.267188e+001
3.928349e+003;2.266810e+001
3.930277e+003;2.265713e+001
3.932206e+003;2.265498e+001
3.934134e+003;2.263718e+001
3.936063e+003;2.262073e+001
3.937991e+003;2.263720e+001
3.939920e+003;2.261650e+001
3.941848e+003;2.259689e+001
3.943777e+003;2.259798e+001
3.945705e+003;2.258652e+001
3.947634e+003;2.258204e+001
3.949562e+003;2.257948e+001
3.951491e+003;2.254930e+001
3.953419e+003;2.255927e+001
3.955348e+003;2.256120e+001
3.957276e+003;2.253079e+001
3.959205e+003;2.252630e+001
3.961133e+003;2.252633e+001
3.963062e+003;2.251050e+001
3.964990e+003;2.251927e+001
3.966919e+003;2.249490e+001
3.968847e+003;2.247871e+001
3.970776e+003;2.249416e+001
3.972704e+003;2.247580e+001
3.974633e+003;2.245067e+001
3.976561e+003;2.246131e+001
3.978490e+003;2.244226e+001
3.980418e+003;2.244020e+001
3.982347e+003;2.244002e+001
3.984275e+003;2.241035e+001
3.986204e+003;2.241199e+001
3.988132e+003;2.242270e+001
3.990061e+003;2.238738e+001
3.991989e+003;2.238604e+001
3.993918e+003;2.238589e+001
3.995846e+003;2.237070e+001
3.997775e+003;2.237218e+001
3.999703e+003;2.235392e+001
