3.991989e+002;5.005543e+001
4.011274e+002;5.027157e+001
4.030559e+002;5.053538e+001
4.049844e+002;5.042080e+001
4.069129e+002;4.971766e+001
4.088414e+002;4.953072e+001
4.107699e+002;4.972298e+001
4.126984e+002;4.966107e+001
4.146269e+002;4.934602e+001
4.165554e+002;4.918001e+001
4.184839e+002;4.879652e+001
4.204124e+002;4.834204e+001
4.223409e+002;4.814726e+001
4.242694e+002;4.773889e+001
4.261979e+002;4.737450e+001
4.281264e+002;4.721603e+001
4.300549e+002;4.679681e+001
4.319834e+002;4.603825e+001
4.339119e+002;4.565310e+001
4.358404e+002;4.543865e+001
4.377689e+002;4.509621e+001
4.396974e+002;4.462724e+001
4.416259e+002;4.402796e+001
4.435544e+002;4.344787e+001
4.454829e+002;4.274213e+001
4.474114e+002;4.214664e+001
4.493399e+002;4.183957e+001
4.512684e+002;4.144713e+001
4.531969e+002;4.098883e+001
4.551254e+002;4.062148e+001
4.570539e+002;4.054484e+001
4.589824e+002;4.054546e+001
4.609109e+002;4.048495e+001
4.628394e+002;4.065305e+001
4.647679e+002;4.116798e+001
4.666964e+002;4.166456e+001
4.686248e+002;4.225435e+001
4.705533e+002;4.305128e+001
4.724818e+002;4.393259e+001
4.744103e+002;4.487115e+001
4.763388e+002;4.578049e+001
4.782673e+002;4.653576e+001
4.801958e+002;4.717067e+001
4.821243e+002;4.762904e+001
4.840528e+002;4.798516e+001
4.859813e+002;4.825950e+001
4.879098e+002;4.850481e+001
4.898383e+002;4.883572e+001
4.917668e+002;4.900753e+001
4.936953e+002;4.902635e+001
4.956238e+002;4.910091e+001
4.975523e+002;4.910730e+001
4.994808e+002;4.909175e+001
5.014093e+002;4.903200e+001
5.033378e+002;4.893438e+001
5.052663e+002;4.885493e+001
5.071948e+002;4.866475e+001
5.091233e+002;4.829995e+001
5.110518e+002;4.789977e+001
5.129803e+002;4.756985e+001
5.149088e+002;4.765211e+001
5.168373e+002;4.810983e+001
5.187657e+002;4.855650e+001
5.206943e+002;4.872231e+001
5.226227e+002;4.874290e+001
5.245513e+002;4.873490e+001
5.264797e+002;4.878711e+001
5.284083e+002;4.882949e+001
5.303367e+002;4.881320e+001
5.322653e+002;4.870228e+001
5.341937e+002;4.854986e+001
5.361223e+002;4.846769e+001
5.380507e+002;4.836971e+001
5.399792e+002;4.824093e+001
5.419077e+002;4.810933e+001
5.438362e+002;4.795119e+001
5.457647e+002;4.779957e+001
5.476932e+002;4.760406e+001
5.496217e+002;4.737548e+001
5.515502e+002;4.722895e+001
5.534787e+002;4.707427e+001
5.554072e+002;4.685634e+001
5.573357e+002;4.667655e+001
5.592642e+002;4.648058e+001
5.611927e+002;4.628765e+001
5.631212e+002;4.605545e+001
5.650497e+002;4.584388e+001
5.669782e+002;4.573533e+001
5.689067e+002;4.585756e+001
5.708352e+002;4.616535e+001
5.727637e+002;4.636259e+001
5.746922e+002;4.640083e+001
5.766207e+002;4.632902e+001
5.785492e+002;4.615990e+001
5.804777e+002;4.590823e+001
5.824062e+002;4.558166e+001
5.843347e+002;4.519699e+001
5.862632e+002;4.470539e+001
5.881917e+002;4.409238e+001
5.901202e+002;4.334048e+001
5.920486e+002;4.243555e+001
5.939772e+002;4.134999e+001
5.959056e+002;4.012683e+001
5.978342e+002;3.872783e+001
5.997626e+002;3.697677e+001
6.016912e+002;3.500589e+001
6.036196e+002;3.345440e+001
6.055482e+002;3.229818e+001
6.074766e+002;3.122425e+001
6.094052e+002;3.034490e+001
6.113336e+002;3.025449e+001
6.132621e+002;3.077055e+001
6.151906e+002;3.106229e+001
6.171191e+002;3.110420e+001
6.190476e+002;3.115601e+001
6.209761e+002;3.141604e+001
6.229046e+002;3.258981e+001
6.248331e+002;3.516924e+001
6.267616e+002;3.854878e+001
6.286901e+002;4.192109e+001
6.306186e+002;4.426829e+001
6.325471e+002;4.530556e+001
6.344756e+002;4.562000e+001
6.364041e+002;4.573374e+001
6.383326e+002;4.579924e+001
6.402611e+002;4.588307e+001
6.421896e+002;4.598760e+001
6.441181e+002;4.610076e+001
6.460466e+002;4.621012e+001
6.479751e+002;4.630893e+001
6.499036e+002;4.640112e+001
6.518321e+002;4.650401e+001
6.537606e+002;4.662563e+001
6.556891e+002;4.673977e+001
6.576176e+002;4.686131e+001
6.595461e+002;4.699636e+001
6.614745e+002;4.713504e+001
6.634031e+002;4.727868e+001
6.653315e+002;4.744878e+001
6.672601e+002;4.762023e+001
6.691885e+002;4.778395e+001
6.711171e+002;4.793837e+001
6.730455e+002;4.809057e+001
6.749741e+002;4.824736e+001
6.769025e+002;4.841856e+001
6.788311e+002;4.857569e+001
6.807595e+002;4.871871e+001
6.826880e+002;4.885328e+001
6.846165e+002;4.896971e+001
6.865450e+002;4.908578e+001
6.884735e+002;4.922102e+001
6.904020e+002;4.939751e+001
6.923305e+002;4.960553e+001
6.942590e+002;4.981760e+001
6.961875e+002;5.005314e+001
6.981160e+002;5.029623e+001
7.000445e+002;5.046512e+001
7.019730e+002;5.054816e+001
7.039015e+002;5.057221e+001
7.058300e+002;5.053277e+001
7.077585e+002;5.042124e+001
7.096870e+002;5.019968e+001
7.116155e+002;4.982591e+001
7.135440e+002;4.930722e+001
7.154725e+002;4.875637e+001
7.174010e+002;4.831926e+001
7.193295e+002;4.800243e+001
7.212580e+002;4.770628e+001
7.231865e+002;4.741893e+001
7.251150e+002;4.713723e+001
7.270435e+002;4.685973e+001
7.289720e+002;4.661187e+001
7.309005e+002;4.636749e+001
7.328290e+002;4.612129e+001
7.347574e+002;4.589954e+001
7.366860e+002;4.570777e+001
7.386144e+002;4.559370e+001
7.405430e+002;4.571095e+001
7.424714e+002;4.605658e+001
7.444000e+002;4.642103e+001
7.463284e+002;4.670533e+001
7.482570e+002;4.690905e+001
7.501854e+002;4.706641e+001
7.521140e+002;4.719381e+001
7.540424e+002;4.730125e+001
7.559709e+002;4.739629e+001
7.578994e+002;4.748663e+001
7.598279e+002;4.756369e+001
7.617564e+002;4.761928e+001
7.636849e+002;4.764954e+001
7.656134e+002;4.765717e+001
7.675419e+002;4.764969e+001
7.694704e+002;4.762918e+001
7.713989e+002;4.757882e+001
7.733274e+002;4.749936e+001
7.752559e+002;4.739235e+001
7.771844e+002;4.726497e+001
7.791129e+002;4.713844e+001
7.810414e+002;4.702767e+001
7.829699e+002;4.692473e+001
7.848984e+002;4.683269e+001
7.868269e+002;4.675103e+001
7.887554e+002;4.667005e+001
7.906839e+002;4.660174e+001
7.926124e+002;4.658093e+001
7.945409e+002;4.663123e+001
7.964694e+002;4.678587e+001
7.983979e+002;4.703572e+001
8.003264e+002;4.716085e+001
8.022549e+002;4.703561e+001
8.041833e+002;4.680801e+001
8.061119e+002;4.658485e+001
8.080403e+002;4.640891e+001
8.099689e+002;4.629370e+001
8.118973e+002;4.621281e+001
8.138259e+002;4.612802e+001
8.157543e+002;4.606792e+001
8.176829e+002;4.607788e+001
8.196113e+002;4.617500e+001
8.215399e+002;4.633321e+001
8.234683e+002;4.655560e+001
8.253969e+002;4.681491e+001
8.273253e+002;4.710986e+001
8.292538e+002;4.743932e+001
8.311823e+002;4.775388e+001
8.331108e+002;4.801792e+001
8.350393e+002;4.821774e+001
8.369678e+002;4.835824e+001
8.388963e+002;4.843740e+001
8.408248e+002;4.846407e+001
8.427533e+002;4.845705e+001
8.446818e+002;4.844084e+001
8.466103e+002;4.845729e+001
8.485388e+002;4.849409e+001
8.504673e+002;4.851867e+001
8.523958e+002;4.852827e+001
8.543243e+002;4.851274e+001
8.562528e+002;4.845710e+001
8.581813e+002;4.836548e+001
8.601098e+002;4.823707e+001
8.620383e+002;4.810165e+001
8.639668e+002;4.798462e+001
8.658953e+002;4.790034e+001
8.678238e+002;4.782733e+001
8.697523e+002;4.774200e+001
8.716808e+002;4.764952e+001
8.736093e+002;4.756500e+001
8.755378e+002;4.747321e+001
8.774662e+002;4.738063e+001
8.793948e+002;4.729703e+001
8.813232e+002;4.721901e+001
8.832518e+002;4.715760e+001
8.851802e+002;4.712384e+001
8.871088e+002;4.711068e+001
8.890372e+002;4.712383e+001
8.909658e+002;4.715947e+001
8.928942e+002;4.720407e+001
8.948227e+002;4.724619e+001
8.967512e+002;4.730742e+001
8.986797e+002;4.738900e+001
9.006082e+002;4.748737e+001
9.025367e+002;4.758690e+001
9.044652e+002;4.768510e+001
9.063937e+002;4.779455e+001
9.083222e+002;4.791719e+001
9.102507e+002;4.805395e+001
9.121792e+002;4.823175e+001
9.141077e+002;4.842292e+001
9.160362e+002;4.860128e+001
9.179647e+002;4.875176e+001
9.198932e+002;4.886762e+001
9.218217e+002;4.895676e+001
9.237502e+002;4.904462e+001
9.256786e+002;4.913822e+001
9.276072e+002;4.922905e+001
9.295356e+002;4.930410e+001
9.314642e+002;4.936762e+001
9.333926e+002;4.941710e+001
9.353212e+002;4.945644e+001
9.372496e+002;4.948376e+001
9.391782e+002;4.951532e+001
9.411066e+002;4.953527e+001
9.430352e+002;4.952499e+001
9.449636e+002;4.948324e+001
9.468922e+002;4.942703e+001
9.488206e+002;4.935872e+001
9.507491e+002;4.929053e+001
9.526776e+002;4.923690e+001
9.546061e+002;4.918951e+001
9.565346e+002;4.913757e+001
9.584631e+002;4.908647e+001
9.603916e+002;4.903670e+001
9.623201e+002;4.899564e+001
9.642486e+002;4.896843e+001
9.661771e+002;4.895793e+001
9.681056e+002;4.895042e+001
9.700341e+002;4.893786e+001
9.719626e+002;4.893110e+001
9.738911e+002;4.892940e+001
9.758196e+002;4.893077e+001
9.777481e+002;4.893595e+001
9.796766e+002;4.894996e+001
9.816051e+002;4.896364e+001
9.835336e+002;4.896064e+001
9.854621e+002;4.894720e+001
9.873906e+002;4.892459e+001
9.893191e+002;4.889029e+001
9.912476e+002;4.883275e+001
9.931761e+002;4.874838e+001
9.951046e+002;4.862988e+001
9.970331e+002;4.846712e+001
9.989615e+002;4.825869e+001
1.000890e+003;4.801508e+001
1.002819e+003;4.773392e+001
1.004747e+003;4.740638e+001
1.006676e+003;4.702701e+001
1.008604e+003;4.658828e+001
1.010533e+003;4.608508e+001
1.012461e+003;4.553161e+001
1.014390e+003;4.493375e+001
1.016318e+003;4.429572e+001
1.018247e+003;4.361724e+001
1.020175e+003;4.288881e+001
1.022104e+003;4.212166e+001
1.024032e+003;4.133107e+001
1.025961e+003;4.051780e+001
1.027889e+003;3.970208e+001
1.029818e+003;3.889638e+001
1.031746e+003;3.809266e+001
1.033675e+003;3.729709e+001
1.035603e+003;3.651976e+001
1.037531e+003;3.575928e+001
1.039460e+003;3.502528e+001
1.041389e+003;3.431953e+001
1.043317e+003;3.364272e+001
1.045245e+003;3.299923e+001
1.047174e+003;3.238770e+001
1.049103e+003;3.180289e+001
1.051031e+003;3.125731e+001
1.052959e+003;3.074987e+001
1.054888e+003;3.028216e+001
1.056817e+003;2.985430e+001
1.058745e+003;2.945836e+001
1.060673e+003;2.910155e+001
1.062602e+003;2.878302e+001
1.064531e+003;2.849846e+001
1.066459e+003;2.825879e+001
1.068387e+003;2.805645e+001
1.070316e+003;2.788507e+001
1.072245e+003;2.775203e+001
1.074173e+003;2.765438e+001
1.076101e+003;2.758665e+001
1.078030e+003;2.755867e+001
1.079958e+003;2.756653e+001
1.081887e+003;2.760950e+001
1.083815e+003;2.769197e+001
1.085744e+003;2.780711e+001
1.087672e+003;2.796127e+001
1.089601e+003;2.816378e+001
1.091529e+003;2.841365e+001
1.093458e+003;2.872814e+001
1.095386e+003;2.912111e+001
1.097315e+003;2.959972e+001
1.099243e+003;3.018408e+001
1.101172e+003;3.089192e+001
1.103100e+003;3.172543e+001
1.105029e+003;3.269439e+001
1.106957e+003;3.379021e+001
1.108886e+003;3.498634e+001
1.110814e+003;3.626287e+001
1.112743e+003;3.758352e+001
1.114671e+003;3.890409e+001
1.116600e+003;4.019976e+001
1.118528e+003;4.143496e+001
1.120457e+003;4.258406e+001
1.122385e+003;4.363706e+001
1.124314e+003;4.458575e+001
1.126242e+003;4.542220e+001
1.128171e+003;4.614368e+001
1.130099e+003;4.673984e+001
1.132028e+003;4.722222e+001
1.133956e+003;4.760299e+001
1.135885e+003;4.789465e+001
1.137813e+003;4.811974e+001
1.139742e+003;4.829883e+001
1.141670e+003;4.843890e+001
1.143599e+003;4.856178e+001
1.145527e+003;4.867289e+001
1.147456e+003;4.876957e+001
1.149384e+003;4.885234e+001
1.151313e+003;4.892354e+001
1.153241e+003;4.898583e+001
1.155170e+003;4.904427e+001
1.157098e+003;4.910091e+001
1.159027e+003;4.915885e+001
1.160955e+003;4.922231e+001
1.162884e+003;4.928012e+001
1.164812e+003;4.933284e+001
1.166741e+003;4.938990e+001
1.168669e+003;4.944540e+001
1.170598e+003;4.950670e+001
1.172526e+003;4.957637e+001
1.174455e+003;4.964301e+001
1.176383e+003;4.970581e+001
1.178312e+003;4.976977e+001
1.180240e+003;4.981697e+001
1.182169e+003;4.988867e+001
1.184097e+003;4.997868e+001
1.186026e+003;5.005483e+001
1.187954e+003;5.013710e+001
1.189883e+003;5.021601e+001
1.191811e+003;5.028867e+001
1.193740e+003;5.036532e+001
1.195668e+003;5.044907e+001
1.197597e+003;5.053456e+001
1.199525e+003;5.062502e+001
1.201454e+003;5.070821e+001
1.203382e+003;5.078448e+001
1.205311e+003;5.086097e+001
1.207239e+003;5.093713e+001
1.209168e+003;5.101514e+001
1.211096e+003;5.109752e+001
1.213025e+003;5.117136e+001
1.214953e+003;5.123569e+001
1.216882e+003;5.129289e+001
1.218810e+003;5.134403e+001
1.220739e+003;5.139661e+001
1.222667e+003;5.145108e+001
1.224596e+003;5.150159e+001
1.226524e+003;5.155262e+001
1.228453e+003;5.160070e+001
1.230381e+003;5.164310e+001
1.232310e+003;5.168671e+001
1.234238e+003;5.173164e+001
1.236167e+003;5.177240e+001
1.238095e+003;5.181073e+001
1.240024e+003;5.183686e+001
1.241952e+003;5.185093e+001
1.243881e+003;5.186145e+001
1.245809e+003;5.187082e+001
1.247738e+003;5.187790e+001
1.249666e+003;5.188669e+001
1.251595e+003;5.188993e+001
1.253523e+003;5.188712e+001
1.255452e+003;5.188422e+001
1.257380e+003;5.188396e+001
1.259309e+003;5.189549e+001
1.261237e+003;5.192150e+001
1.263166e+003;5.195294e+001
1.265094e+003;5.198733e+001
1.267023e+003;5.202370e+001
1.268951e+003;5.205799e+001
1.270880e+003;5.209102e+001
1.272808e+003;5.212298e+001
1.274737e+003;5.214599e+001
1.276665e+003;5.216354e+001
1.278594e+003;5.217052e+001
1.280522e+003;5.216434e+001
1.282451e+003;5.215753e+001
1.284379e+003;5.215255e+001
1.286308e+003;5.214682e+001
1.288236e+003;5.214350e+001
1.290165e+003;5.213689e+001
1.292093e+003;5.212666e+001
1.294022e+003;5.211679e+001
1.295950e+003;5.210891e+001
1.297879e+003;5.210831e+001
1.299807e+003;5.211635e+001
1.301736e+003;5.212577e+001
1.303664e+003;5.213238e+001
1.305593e+003;5.213862e+001
1.307521e+003;5.214730e+001
1.309450e+003;5.216164e+001
1.311378e+003;5.218311e+001
1.313307e+003;5.220846e+001
1.315235e+003;5.223329e+001
1.317164e+003;5.225478e+001
1.319092e+003;5.227412e+001
1.321021e+003;5.229577e+001
1.322949e+003;5.232243e+001
1.324878e+003;5.235182e+001
1.326806e+003;5.238071e+001
1.328735e+003;5.240481e+001
1.330663e+003;5.242128e+001
1.332592e+003;5.243401e+001
1.334520e+003;5.244931e+001
1.336449e+003;5.246486e+001
1.338377e+003;5.247790e+001
1.340306e+003;5.248618e+001
1.342234e+003;5.248716e+001
1.344163e+003;5.248140e+001
1.346091e+003;5.247168e+001
1.348020e+003;5.246063e+001
1.349948e+003;5.245073e+001
1.351877e+003;5.244021e+001
1.353805e+003;5.242331e+001
1.355734e+003;5.240200e+001
1.357662e+003;5.237907e+001
1.359591e+003;5.235673e+001
1.361519e+003;5.233819e+001
1.363448e+003;5.232240e+001
1.365376e+003;5.230830e+001
1.367305e+003;5.229213e+001
1.369233e+003;5.227367e+001
1.371161e+003;5.225388e+001
1.373090e+003;5.224068e+001
1.375019e+003;5.223464e+001
1.376947e+003;5.222879e+001
1.378875e+003;5.222213e+001
1.380804e+003;5.221191e+001
1.382733e+003;5.219981e+001
1.384661e+003;5.219130e+001
1.386589e+003;5.218003e+001
1.388518e+003;5.217921e+001
1.390447e+003;5.218544e+001
1.392375e+003;5.218095e+001
1.394303e+003;5.217179e+001
1.396232e+003;5.216059e+001
1.398161e+003;5.214915e+001
1.400089e+003;5.214539e+001
1.402017e+003;5.214527e+001
1.403946e+003;5.213522e+001
1.405875e+003;5.212234e+001
1.407803e+003;5.210602e+001
1.409731e+003;5.208377e+001
1.411660e+003;5.206667e+001
1.413589e+003;5.204978e+001
1.415517e+003;5.202339e+001
1.417445e+003;5.199869e+001
1.419374e+003;5.196729e+001
1.421302e+003;5.192174e+001
1.423231e+003;5.188277e+001
1.425159e+003;5.184362e+001
1.427088e+003;5.180217e+001
1.429016e+003;5.176185e+001
1.430945e+003;5.170921e+001
1.432873e+003;5.165327e+001
1.434802e+003;5.159565e+001
1.436730e+003;5.153437e+001
1.438659e+003;5.150219e+001
1.440587e+003;5.147386e+001
1.442516e+003;5.143599e+001
1.444444e+003;5.140665e+001
1.446373e+003;5.138368e+001
1.448301e+003;5.136779e+001
1.450230e+003;5.137906e+001
1.452158e+003;5.139865e+001
1.454087e+003;5.141597e+001
1.456015e+003;5.143892e+001
1.457944e+003;5.148169e+001
1.459872e+003;5.153188e+001
1.461801e+003;5.158775e+001
1.463729e+003;5.163547e+001
1.465658e+003;5.168759e+001
1.467586e+003;5.175041e+001
1.469515e+003;5.179688e+001
1.471443e+003;5.183567e+001
1.473372e+003;5.188030e+001
1.475300e+003;5.192406e+001
1.477229e+003;5.196869e+001
1.479157e+003;5.201295e+001
1.481086e+003;5.204245e+001
1.483014e+003;5.207223e+001
1.484943e+003;5.210005e+001
1.486871e+003;5.211908e+001
1.488800e+003;5.214264e+001
1.490728e+003;5.217064e+001
1.492657e+003;5.218645e+001
1.494585e+003;5.220534e+001
1.496514e+003;5.221733e+001
1.498442e+003;5.221736e+001
1.500371e+003;5.222546e+001
1.502299e+003;5.222924e+001
1.504228e+003;5.221759e+001
1.506156e+003;5.222096e+001
1.508085e+003;5.222534e+001
1.510013e+003;5.221709e+001
1.511942e+003;5.221961e+001
1.513870e+003;5.221236e+001
1.515799e+003;5.220361e+001
1.517727e+003;5.219960e+001
1.519656e+003;5.219076e+001
1.521584e+003;5.217651e+001
1.523513e+003;5.216399e+001
1.525441e+003;5.214824e+001
1.527370e+003;5.214819e+001
1.529298e+003;5.214652e+001
1.531227e+003;5.212801e+001
1.533155e+003;5.211007e+001
1.535084e+003;5.209954e+001
1.537012e+003;5.207268e+001
1.538941e+003;5.205563e+001
1.540869e+003;5.205373e+001
1.542798e+003;5.204229e+001
1.544726e+003;5.203928e+001
1.546655e+003;5.202362e+001
1.548583e+003;5.200167e+001
1.550512e+003;5.199242e+001
1.552440e+003;5.198095e+001
1.554369e+003;5.196820e+001
1.556297e+003;5.194526e+001
1.558226e+003;5.190512e+001
1.560154e+003;5.189537e+001
1.562083e+003;5.189902e+001
1.564011e+003;5.188581e+001
1.565940e+003;5.187553e+001
1.567868e+003;5.186112e+001
1.569797e+003;5.183544e+001
1.571725e+003;5.182275e+001
1.573654e+003;5.181009e+001
1.575582e+003;5.179404e+001
1.577511e+003;5.178188e+001
1.579439e+003;5.176511e+001
1.581368e+003;5.174496e+001
1.583296e+003;5.173207e+001
1.585225e+003;5.171159e+001
1.587153e+003;5.169144e+001
1.589082e+003;5.168312e+001
1.591010e+003;5.166526e+001
1.592939e+003;5.164931e+001
1.594867e+003;5.163879e+001
1.596796e+003;5.161470e+001
1.598724e+003;5.159556e+001
1.600653e+003;5.158524e+001
1.602581e+003;5.156533e+001
1.604510e+003;5.155389e+001
1.606438e+003;5.154229e+001
1.608367e+003;5.151770e+001
1.610295e+003;5.150173e+001
1.612224e+003;5.148688e+001
1.614152e+003;5.146450e+001
1.616081e+003;5.145475e+001
1.618009e+003;5.144099e+001
1.619938e+003;5.141892e+001
1.621866e+003;5.140252e+001
1.623795e+003;5.138073e+001
1.625723e+003;5.136363e+001
1.627652e+003;5.135928e+001
1.629580e+003;5.134323e+001
1.631509e+003;5.132557e+001
1.633437e+003;5.130603e+001
1.635366e+003;5.127466e+001
1.637294e+003;5.126666e+001
1.639223e+003;5.126691e+001
1.641151e+003;5.124915e+001
1.643080e+003;5.123471e+001
1.645008e+003;5.121288e+001
1.646937e+003;5.119068e+001
1.648865e+003;5.118624e+001
1.650794e+003;5.117443e+001
1.652722e+003;5.115147e+001
1.654651e+003;5.114014e+001
1.656579e+003;5.113209e+001
1.658508e+003;5.111178e+001
1.660436e+003;5.109722e+001
1.662365e+003;5.107447e+001
1.664293e+003;5.105828e+001
1.666222e+003;5.105590e+001
1.668150e+003;5.103959e+001
1.670079e+003;5.102032e+001
1.672007e+003;5.100858e+001
1.673936e+003;5.098907e+001
1.675864e+003;5.097206e+001
1.677793e+003;5.096461e+001
1.679721e+003;5.094413e+001
1.681650e+003;5.092776e+001
1.683578e+003;5.089363e+001
1.685507e+003;5.086333e+001
1.687435e+003;5.086788e+001
1.689364e+003;5.085809e+001
1.691292e+003;5.083488e+001
1.693221e+003;5.081573e+001
1.695149e+003;5.077790e+001
1.697078e+003;5.075600e+001
1.699006e+003;5.075052e+001
1.700935e+003;5.072020e+001
1.702863e+003;5.069854e+001
1.704792e+003;5.068333e+001
1.706720e+003;5.065492e+001
1.708649e+003;5.062679e+001
1.710577e+003;5.060801e+001
1.712505e+003;5.057339e+001
1.714434e+003;5.054060e+001
1.716363e+003;5.051370e+001
1.718291e+003;5.049217e+001
1.720219e+003;5.048719e+001
1.722148e+003;5.047370e+001
1.724077e+003;5.044677e+001
1.726005e+003;5.043592e+001
1.727933e+003;5.043124e+001
1.729862e+003;5.041529e+001
1.731791e+003;5.040311e+001
1.733719e+003;5.038020e+001
1.735647e+003;5.036704e+001
1.737576e+003;5.036845e+001
1.739505e+003;5.035204e+001
1.741433e+003;5.033814e+001
1.743361e+003;5.033600e+001
1.745290e+003;5.031688e+001
1.747219e+003;5.029350e+001
1.749147e+003;5.027917e+001
1.751075e+003;5.025379e+001
1.753004e+003;5.023892e+001
1.754932e+003;5.022939e+001
1.756861e+003;5.020103e+001
1.758789e+003;5.018055e+001
1.760718e+003;5.016058e+001
1.762646e+003;5.013176e+001
1.764575e+003;5.011882e+001
1.766503e+003;5.010393e+001
1.768432e+003;5.007735e+001
1.770360e+003;5.005770e+001
1.772289e+003;5.002612e+001
1.774217e+003;4.999989e+001
1.776146e+003;4.999292e+001
1.778074e+003;4.997412e+001
1.780003e+003;4.994766e+001
1.781931e+003;4.993410e+001
1.783860e+003;4.990965e+001
1.785788e+003;4.988157e+001
1.787717e+003;4.986556e+001
1.789645e+003;4.983838e+001
1.791574e+003;4.981543e+001
1.793502e+003;4.980302e+001
1.795431e+003;4.977504e+001
1.797359e+003;4.975067e+001
1.799288e+003;4.973162e+001
1.801216e+003;4.970194e+001
1.803145e+003;4.968461e+001
1.805073e+003;4.966835e+001
1.807002e+003;4.963781e+001
1.808930e+003;4.961757e+001
1.810859e+003;4.959388e+001
1.812787e+003;4.956319e+001
1.814716e+003;4.954806e+001
1.816644e+003;4.952583e+001
1.818573e+003;4.949685e+001
1.820501e+003;4.947966e+001
1.822430e+003;4.944897e+001
1.824358e+003;4.941632e+001
1.826287e+003;4.940130e+001
1.828215e+003;4.937282e+001
1.830144e+003;4.934617e+001
1.832072e+003;4.933175e+001
1.834001e+003;4.929875e+001
1.835929e+003;4.927328e+001
1.837858e+003;4.925509e+001
1.839786e+003;4.922256e+001
1.841715e+003;4.919955e+001
1.843643e+003;4.917344e+001
1.845572e+003;4.914171e+001
1.847500e+003;4.912549e+001
1.849429e+003;4.910014e+001
1.851357e+003;4.906674e+001
1.853286e+003;4.905114e+001
1.855214e+003;4.902704e+001
1.857143e+003;4.899336e+001
1.859071e+003;4.897493e+001
1.861000e+003;4.894483e+001
1.862928e+003;4.891471e+001
1.864857e+003;4.889907e+001
1.866785e+003;4.886805e+001
1.868714e+003;4.883900e+001
1.870642e+003;4.882177e+001
1.872571e+003;4.878679e+001
1.874499e+003;4.876095e+001
1.876428e+003;4.874330e+001
1.878356e+003;4.870874e+001
1.880285e+003;4.868779e+001
1.882213e+003;4.866666e+001
1.884142e+003;4.862811e+001
1.886070e+003;4.860736e+001
1.887999e+003;4.858383e+001
1.889927e+003;4.854849e+001
1.891856e+003;4.853010e+001
1.893784e+003;4.850225e+001
1.895713e+003;4.846600e+001
1.897641e+003;4.844496e+001
1.899570e+003;4.840881e+001
1.901498e+003;4.837380e+001
1.903427e+003;4.835588e+001
1.905355e+003;4.831802e+001
1.907284e+003;4.828101e+001
1.909212e+003;4.825452e+001
1.911141e+003;4.820945e+001
1.913069e+003;4.817519e+001
1.914998e+003;4.814587e+001
1.916926e+003;4.809592e+001
1.918855e+003;4.806212e+001
1.920783e+003;4.802717e+001
1.922712e+003;4.796994e+001
1.924640e+003;4.793103e+001
1.926569e+003;4.788816e+001
1.928497e+003;4.783304e+001
1.930426e+003;4.779347e+001
1.932354e+003;4.773907e+001
1.934283e+003;4.767599e+001
1.936211e+003;4.763264e+001
1.938140e+003;4.757159e+001
1.940068e+003;4.750798e+001
1.941997e+003;4.745988e+001
1.943925e+003;4.739270e+001
1.945854e+003;4.732728e+001
1.947782e+003;4.727106e+001
1.949711e+003;4.719310e+001
1.951639e+003;4.713050e+001
1.953568e+003;4.707521e+001
1.955496e+003;4.699549e+001
1.957425e+003;4.692978e+001
1.959353e+003;4.686543e+001
1.961282e+003;4.678378e+001
1.963210e+003;4.672261e+001
1.965139e+003;4.665378e+001
1.967067e+003;4.657319e+001
1.968996e+003;4.651714e+001
1.970924e+003;4.644730e+001
1.972853e+003;4.636866e+001
1.974781e+003;4.631342e+001
1.976710e+003;4.624438e+001
1.978638e+003;4.617820e+001
1.980567e+003;4.612988e+001
1.982495e+003;4.606017e+001
1.984424e+003;4.600032e+001
1.986352e+003;4.595701e+001
1.988281e+003;4.589338e+001
1.990209e+003;4.584676e+001
1.992138e+003;4.581014e+001
1.994066e+003;4.575663e+001
1.995995e+003;4.572275e+001
1.997923e+003;4.568824e+001
1.999852e+003;4.563926e+001
2.001780e+003;4.562045e+001
2.003709e+003;4.559524e+001
2.005637e+003;4.555677e+001
2.007566e+003;4.554351e+001
2.009494e+003;4.552014e+001
2.011423e+003;4.549352e+001
2.013351e+003;4.548978e+001
2.015280e+003;4.546717e+001
2.017208e+003;4.544998e+001
2.019137e+003;4.545242e+001
2.021065e+003;4.543096e+001
2.022994e+003;4.541683e+001
2.024922e+003;4.541775e+001
2.026851e+003;4.539847e+001
2.028779e+003;4.539444e+001
2.030708e+003;4.539216e+001
2.032636e+003;4.536736e+001
2.034565e+003;4.536380e+001
2.036493e+003;4.535880e+001
2.038422e+003;4.533477e+001
2.040350e+003;4.533239e+001
2.042279e+003;4.532283e+001
2.044207e+003;4.530028e+001
2.046135e+003;4.529481e+001
2.048064e+003;4.527510e+001
2.049992e+003;4.525220e+001
2.051921e+003;4.525150e+001
2.053850e+003;4.523095e+001
2.055778e+003;4.520857e+001
2.057707e+003;4.520133e+001
2.059635e+003;4.517702e+001
2.061563e+003;4.515922e+001
2.063492e+003;4.515253e+001
2.065420e+003;4.512861e+001
2.067349e+003;4.511838e+001
2.069278e+003;4.511324e+001
2.071206e+003;4.509002e+001
2.073135e+003;4.508148e+001
2.075063e+003;4.507844e+001
2.076991e+003;4.506556e+001
2.078920e+003;4.506901e+001
2.080848e+003;4.506679e+001
2.082777e+003;4.505629e+001
2.084706e+003;4.506524e+001
2.086634e+003;4.506866e+001
2.088563e+003;4.506665e+001
2.090491e+003;4.508306e+001
2.092419e+003;4.509110e+001
2.094348e+003;4.509808e+001
2.096276e+003;4.511606e+001
2.098205e+003;4.512312e+001
2.100134e+003;4.513726e+001
2.102062e+003;4.516390e+001
2.103990e+003;4.517389e+001
2.105919e+003;4.518828e+001
2.107847e+003;4.521136e+001
2.109776e+003;4.522188e+001
2.111704e+003;4.523860e+001
2.113633e+003;4.525927e+001
2.115562e+003;4.526698e+001
2.117490e+003;4.528503e+001
2.119418e+003;4.530140e+001
2.121347e+003;4.530350e+001
2.123275e+003;4.531523e+001
2.125204e+003;4.532623e+001
2.127132e+003;4.532837e+001
2.129061e+003;4.533979e+001
2.130990e+003;4.534274e+001
2.132918e+003;4.533908e+001
2.134846e+003;4.534564e+001
2.136775e+003;4.534361e+001
2.138703e+003;4.533669e+001
2.140632e+003;4.533989e+001
2.142560e+003;4.533234e+001
2.144489e+003;4.532152e+001
2.146417e+003;4.531607e+001
2.148346e+003;4.530012e+001
2.150274e+003;4.528740e+001
2.152203e+003;4.528157e+001
2.154131e+003;4.526109e+001
2.156060e+003;4.524486e+001
2.157988e+003;4.523182e+001
2.159917e+003;4.520679e+001
2.161845e+003;4.518799e+001
2.163774e+003;4.517165e+001
2.165702e+003;4.514345e+001
2.167631e+003;4.512474e+001
2.169559e+003;4.510282e+001
2.171488e+003;4.506908e+001
2.173416e+003;4.504756e+001
2.175345e+003;4.502445e+001
2.177273e+003;4.499298e+001
2.179202e+003;4.497178e+001
2.181130e+003;4.494088e+001
2.183059e+003;4.490703e+001
2.184987e+003;4.488577e+001
2.186916e+003;4.485255e+001
2.188844e+003;4.481804e+001
2.190773e+003;4.479767e+001
2.192701e+003;4.476320e+001
2.194630e+003;4.472879e+001
2.196558e+003;4.470340e+001
2.198487e+003;4.466453e+001
2.200415e+003;4.463371e+001
2.202344e+003;4.461070e+001
2.204272e+003;4.456879e+001
2.206201e+003;4.453746e+001
2.208129e+003;4.450991e+001
2.210058e+003;4.446752e+001
2.211986e+003;4.443933e+001
2.213915e+003;4.440914e+001
2.215843e+003;4.436591e+001
2.217772e+003;4.434214e+001
2.219700e+003;4.430758e+001
2.221629e+003;4.426206e+001
2.223557e+003;4.423889e+001
2.225486e+003;4.420216e+001
2.227414e+003;4.415986e+001
2.229343e+003;4.413646e+001
2.231271e+003;4.409174e+001
2.233200e+003;4.405387e+001
2.235128e+003;4.403144e+001
2.237057e+003;4.398347e+001
2.238985e+003;4.394919e+001
2.240914e+003;4.392536e+001
2.242842e+003;4.387453e+001
2.244771e+003;4.384585e+001
2.246699e+003;4.381721e+001
2.248628e+003;4.376661e+001
2.250556e+003;4.374456e+001
2.252485e+003;4.371258e+001
2.254413e+003;4.366053e+001
2.256342e+003;4.364002e+001
2.258270e+003;4.360240e+001
2.260199e+003;4.355787e+001
2.262127e+003;4.354088e+001
2.264056e+003;4.349587e+001
2.265984e+003;4.345598e+001
2.267913e+003;4.344017e+001
2.269841e+003;4.338983e+001
2.271770e+003;4.335435e+001
2.273698e+003;4.333561e+001
2.275627e+003;4.328441e+001
2.277555e+003;4.325629e+001
2.279484e+003;4.323254e+001
2.281412e+003;4.317859e+001
2.283341e+003;4.315735e+001
2.285269e+003;4.312828e+001
2.287198e+003;4.307542e+001
2.289126e+003;4.305847e+001
2.291055e+003;4.302453e+001
2.292983e+003;4.297454e+001
2.294912e+003;4.295871e+001
2.296840e+003;4.291551e+001
2.298769e+003;4.287136e+001
2.300697e+003;4.285868e+001
2.302626e+003;4.281110e+001
2.304554e+003;4.277095e+001
2.306483e+003;4.275414e+001
2.308411e+003;4.270095e+001
2.310340e+003;4.267070e+001
2.312268e+003;4.265086e+001
2.314197e+003;4.259478e+001
2.316125e+003;4.257106e+001
2.318054e+003;4.254773e+001
2.319982e+003;4.248918e+001
2.321911e+003;4.246962e+001
2.323839e+003;4.243957e+001
2.325768e+003;4.238655e+001
2.327696e+003;4.237219e+001
2.329625e+003;4.233294e+001
2.331553e+003;4.228049e+001
2.333482e+003;4.226965e+001
2.335410e+003;4.222440e+001
2.337339e+003;4.217897e+001
2.339267e+003;4.216805e+001
2.341196e+003;4.211787e+001
2.343124e+003;4.208007e+001
2.345053e+003;4.206633e+001
2.346981e+003;4.200981e+001
2.348910e+003;4.198040e+001
2.350838e+003;4.196336e+001
2.352767e+003;4.190487e+001
2.354695e+003;4.188029e+001
2.356624e+003;4.185704e+001
2.358552e+003;4.179980e+001
2.360481e+003;4.178318e+001
2.362409e+003;4.175019e+001
2.364338e+003;4.169367e+001
2.366266e+003;4.168147e+001
2.368195e+003;4.164177e+001
2.370123e+003;4.158661e+001
2.372052e+003;4.157703e+001
2.373980e+003;4.153113e+001
2.375908e+003;4.148537e+001
2.377837e+003;4.147447e+001
2.379766e+003;4.142022e+001
2.381694e+003;4.138191e+001
2.383623e+003;4.137094e+001
2.385551e+003;4.131203e+001
2.387479e+003;4.128131e+001
2.389408e+003;4.126481e+001
2.391336e+003;4.120387e+001
2.393265e+003;4.117966e+001
2.395194e+003;4.115624e+001
2.397122e+003;4.109442e+001
2.399051e+003;4.107996e+001
2.400979e+003;4.105006e+001
2.402907e+003;4.099070e+001
2.404836e+003;4.097797e+001
2.406764e+003;4.093813e+001
2.408693e+003;4.088438e+001
2.410622e+003;4.087640e+001
2.412550e+003;4.082752e+001
2.414479e+003;4.078016e+001
2.416407e+003;4.077265e+001
2.418335e+003;4.071802e+001
2.420264e+003;4.067651e+001
2.422192e+003;4.066629e+001
2.424121e+003;4.060815e+001
2.426050e+003;4.057749e+001
2.427978e+003;4.055983e+001
2.429906e+003;4.049633e+001
2.431835e+003;4.047288e+001
2.433763e+003;4.045146e+001
2.435692e+003;4.038877e+001
2.437620e+003;4.037239e+001
2.439549e+003;4.034162e+001
2.441478e+003;4.028318e+001
2.443406e+003;4.027079e+001
2.445334e+003;4.023014e+001
2.447263e+003;4.017521e+001
2.449191e+003;4.016832e+001
2.451120e+003;4.012110e+001
2.453048e+003;4.007212e+001
2.454977e+003;4.006160e+001
2.456906e+003;4.000816e+001
2.458834e+003;3.996910e+001
2.460762e+003;3.995628e+001
2.462691e+003;3.989605e+001
2.464619e+003;3.986654e+001
2.466548e+003;3.984874e+001
2.468476e+003;3.978532e+001
2.470405e+003;3.976257e+001
2.472333e+003;3.973975e+001
2.474262e+003;3.967879e+001
2.476190e+003;3.966262e+001
2.478119e+003;3.962760e+001
2.480047e+003;3.956834e+001
2.481976e+003;3.955726e+001
2.483904e+003;3.951651e+001
2.485833e+003;3.946426e+001
2.487761e+003;3.945549e+001
2.489690e+003;3.940421e+001
2.491618e+003;3.935908e+001
2.493547e+003;3.934796e+001
2.495475e+003;3.928991e+001
2.497404e+003;3.925483e+001
2.499332e+003;3.924350e+001
2.501261e+003;3.918174e+001
2.503189e+003;3.915360e+001
2.505118e+003;3.913242e+001
2.507046e+003;3.907076e+001
2.508975e+003;3.905188e+001
2.510903e+003;3.902363e+001
2.512832e+003;3.896235e+001
2.514760e+003;3.895198e+001
2.516689e+003;3.891474e+001
2.518617e+003;3.885585e+001
2.520546e+003;3.884625e+001
2.522474e+003;3.880262e+001
2.524403e+003;3.875249e+001
2.526331e+003;3.874374e+001
2.528260e+003;3.868717e+001
2.530188e+003;3.864573e+001
2.532117e+003;3.863699e+001
2.534045e+003;3.857582e+001
2.535974e+003;3.854168e+001
2.537902e+003;3.852852e+001
2.539831e+003;3.846246e+001
2.541759e+003;3.843709e+001
2.543688e+003;3.841582e+001
2.545616e+003;3.834958e+001
2.547545e+003;3.833487e+001
2.549473e+003;3.830780e+001
2.551402e+003;3.824152e+001
2.553330e+003;3.823131e+001
2.555259e+003;3.819270e+001
2.557187e+003;3.813381e+001
2.559116e+003;3.812811e+001
2.561044e+003;3.808025e+001
2.562973e+003;3.802690e+001
2.564901e+003;3.802489e+001
2.566830e+003;3.796771e+001
2.568758e+003;3.792144e+001
2.570687e+003;3.791669e+001
2.572615e+003;3.785513e+001
2.574544e+003;3.782101e+001
2.576472e+003;3.781131e+001
2.578401e+003;3.774311e+001
2.580329e+003;3.771846e+001
2.582258e+003;3.770190e+001
2.584186e+003;3.763403e+001
2.586115e+003;3.761586e+001
2.588043e+003;3.759054e+001
2.589972e+003;3.752415e+001
2.591900e+003;3.751386e+001
2.593829e+003;3.747666e+001
2.595757e+003;3.741484e+001
2.597686e+003;3.741071e+001
2.599614e+003;3.736630e+001
2.601543e+003;3.731006e+001
2.603471e+003;3.730515e+001
2.605400e+003;3.725181e+001
2.607328e+003;3.720761e+001
2.609257e+003;3.719958e+001
2.611185e+003;3.713852e+001
2.613114e+003;3.710235e+001
2.615042e+003;3.709106e+001
2.616971e+003;3.702636e+001
2.618899e+003;3.699937e+001
2.620828e+003;3.698038e+001
2.622756e+003;3.691624e+001
2.624685e+003;3.689739e+001
2.626613e+003;3.686893e+001
2.628542e+003;3.680585e+001
2.630470e+003;3.679523e+001
2.632399e+003;3.675777e+001
2.634327e+003;3.670016e+001
2.636256e+003;3.669048e+001
2.638184e+003;3.664393e+001
2.640113e+003;3.659523e+001
2.642041e+003;3.658693e+001
2.643970e+003;3.652884e+001
2.645898e+003;3.648925e+001
2.647827e+003;3.648046e+001
2.649755e+003;3.641887e+001
2.651684e+003;3.638498e+001
2.653612e+003;3.636912e+001
2.655541e+003;3.630526e+001
2.657469e+003;3.628500e+001
2.659398e+003;3.626123e+001
2.661326e+003;3.619555e+001
2.663255e+003;3.618180e+001
2.665183e+003;3.614995e+001
2.667112e+003;3.608685e+001
2.669040e+003;3.607811e+001
2.670969e+003;3.603561e+001
2.672897e+003;3.598090e+001
2.674826e+003;3.597512e+001
2.676754e+003;3.592241e+001
2.678683e+003;3.587505e+001
2.680611e+003;3.587240e+001
2.682540e+003;3.581174e+001
2.684468e+003;3.577248e+001
2.686397e+003;3.576367e+001
2.688325e+003;3.569857e+001
2.690254e+003;3.567026e+001
2.692182e+003;3.565567e+001
2.694111e+003;3.558612e+001
2.696039e+003;3.556974e+001
2.697968e+003;3.554916e+001
2.699896e+003;3.547983e+001
2.701825e+003;3.546723e+001
2.703753e+003;3.543578e+001
2.705682e+003;3.537173e+001
2.707610e+003;3.536772e+001
2.709539e+003;3.532450e+001
2.711467e+003;3.526583e+001
2.713396e+003;3.526549e+001
2.715324e+003;3.521558e+001
2.717253e+003;3.516219e+001
2.719181e+003;3.516002e+001
2.721110e+003;3.510318e+001
2.723038e+003;3.506287e+001
2.724967e+003;3.505519e+001
2.726895e+003;3.499005e+001
2.728823e+003;3.495877e+001
2.730752e+003;3.494891e+001
2.732681e+003;3.488165e+001
2.734609e+003;3.485825e+001
2.736538e+003;3.483809e+001
2.738466e+003;3.477406e+001
2.740395e+003;3.475921e+001
2.742323e+003;3.472879e+001
2.744251e+003;3.466595e+001
2.746180e+003;3.465956e+001
2.748109e+003;3.462253e+001
2.750037e+003;3.456458e+001
2.751966e+003;3.455468e+001
2.753894e+003;3.450959e+001
2.755823e+003;3.446412e+001
2.757751e+003;3.445612e+001
2.759679e+003;3.439886e+001
2.761608e+003;3.436063e+001
2.763537e+003;3.435084e+001
2.765465e+003;3.429235e+001
2.767394e+003;3.426151e+001
2.769322e+003;3.424387e+001
2.771250e+003;3.418291e+001
2.773179e+003;3.416288e+001
2.775107e+003;3.413410e+001
2.777036e+003;3.407314e+001
2.778965e+003;3.406181e+001
2.780893e+003;3.402947e+001
2.782822e+003;3.397149e+001
2.784750e+003;3.396126e+001
2.786678e+003;3.391687e+001
2.788607e+003;3.387009e+001
2.790535e+003;3.386312e+001
2.792464e+003;3.380789e+001
2.794393e+003;3.376664e+001
2.796321e+003;3.376160e+001
2.798250e+003;3.369989e+001
2.800178e+003;3.366658e+001
2.802106e+003;3.365447e+001
2.804035e+003;3.359234e+001
2.805963e+003;3.357109e+001
2.807892e+003;3.355037e+001
2.809821e+003;3.348121e+001
2.811749e+003;3.347030e+001
2.813677e+003;3.344510e+001
2.815606e+003;3.337990e+001
2.817534e+003;3.337116e+001
2.819463e+003;3.333545e+001
2.821391e+003;3.327652e+001
2.823320e+003;3.327567e+001
2.825249e+003;3.322696e+001
2.827177e+003;3.317310e+001
2.829105e+003;3.317612e+001
2.831034e+003;3.312355e+001
2.832962e+003;3.307487e+001
2.834891e+003;3.307136e+001
2.836819e+003;3.301222e+001
2.838748e+003;3.297933e+001
2.840677e+003;3.296957e+001
2.842605e+003;3.290247e+001
2.844533e+003;3.287691e+001
2.846462e+003;3.286573e+001
2.848390e+003;3.279815e+001
2.850319e+003;3.277850e+001
2.852247e+003;3.275627e+001
2.854176e+003;3.269439e+001
2.856104e+003;3.268243e+001
2.858033e+003;3.264945e+001
2.859961e+003;3.259020e+001
2.861890e+003;3.258588e+001
2.863818e+003;3.254660e+001
2.865747e+003;3.249363e+001
2.867675e+003;3.248462e+001
2.869604e+003;3.243718e+001
2.871532e+003;3.239571e+001
2.873461e+003;3.238736e+001
2.875389e+003;3.232978e+001
2.877318e+003;3.229744e+001
2.879246e+003;3.228647e+001
2.881175e+003;3.222846e+001
2.883103e+003;3.220067e+001
2.885032e+003;3.218073e+001
2.886960e+003;3.212515e+001
2.888889e+003;3.210918e+001
2.890817e+003;3.207695e+001
2.892746e+003;3.202094e+001
2.894674e+003;3.201211e+001
2.896603e+003;3.197533e+001
2.898531e+003;3.192229e+001
2.900460e+003;3.191302e+001
2.902388e+003;3.186702e+001
2.904317e+003;3.182658e+001
2.906245e+003;3.181694e+001
2.908174e+003;3.175936e+001
2.910102e+003;3.172357e+001
2.912031e+003;3.171789e+001
2.913959e+003;3.165825e+001
2.915888e+003;3.162930e+001
2.917816e+003;3.161154e+001
2.919745e+003;3.154991e+001
2.921673e+003;3.153384e+001
2.923602e+003;3.150992e+001
2.925530e+003;3.144334e+001
2.927459e+003;3.143663e+001
2.929387e+003;3.140756e+001
2.931316e+003;3.134405e+001
2.933244e+003;3.133748e+001
2.935173e+003;3.130068e+001
2.937101e+003;3.124764e+001
2.939030e+003;3.124751e+001
2.940958e+003;3.119603e+001
2.942887e+003;3.114902e+001
2.944815e+003;3.115180e+001
2.946744e+003;3.109774e+001
2.948672e+003;3.105487e+001
2.950601e+003;3.105103e+001
2.952529e+003;3.099208e+001
2.954458e+003;3.096189e+001
2.956386e+003;3.094991e+001
2.958315e+003;3.088565e+001
2.960243e+003;3.086537e+001
2.962172e+003;3.085196e+001
2.964100e+003;3.078687e+001
2.966029e+003;3.077053e+001
2.967957e+003;3.074594e+001
2.969886e+003;3.069035e+001
2.971814e+003;3.068246e+001
2.973743e+003;3.064696e+001
2.975671e+003;3.059224e+001
2.977600e+003;3.059016e+001
2.979528e+003;3.054948e+001
2.981457e+003;3.050001e+001
2.983385e+003;3.048998e+001
2.985314e+003;3.044470e+001
2.987242e+003;3.041045e+001
2.989171e+003;3.039705e+001
2.991099e+003;3.034091e+001
2.993028e+003;3.031665e+001
2.994956e+003;3.030173e+001
2.996885e+003;3.024773e+001
2.998813e+003;3.022635e+001
3.000742e+003;3.020081e+001
3.002670e+003;3.014807e+001
3.004599e+003;3.013794e+001
3.006527e+003;3.010133e+001
3.008456e+003;3.005062e+001
3.010384e+003;3.004614e+001
3.012313e+003;3.000723e+001
3.014241e+003;2.996117e+001
3.016170e+003;2.995225e+001
3.018098e+003;2.990195e+001
3.020027e+003;2.986940e+001
3.021955e+003;2.986218e+001
3.023884e+003;2.980257e+001
3.025812e+003;2.977490e+001
3.027741e+003;2.976884e+001
3.029669e+003;2.970785e+001
3.031598e+003;2.968678e+001
3.033526e+003;2.966987e+001
3.035455e+003;2.961084e+001
3.037383e+003;2.960109e+001
3.039312e+003;2.957636e+001
3.041240e+003;2.951439e+001
3.043169e+003;2.951303e+001
3.045097e+003;2.948124e+001
3.047026e+003;2.942241e+001
3.048954e+003;2.941792e+001
3.050883e+003;2.937838e+001
3.052811e+003;2.933069e+001
3.054740e+003;2.933139e+001
3.056668e+003;2.928053e+001
3.058597e+003;2.923961e+001
3.060525e+003;2.923940e+001
3.062454e+003;2.918703e+001
3.064382e+003;2.915143e+001
3.066311e+003;2.914483e+001
3.068239e+003;2.908936e+001
3.070167e+003;2.906596e+001
3.072096e+003;2.905140e+001
3.074025e+003;2.899263e+001
3.075953e+003;2.897731e+001
3.077882e+003;2.896106e+001
3.079810e+003;2.890497e+001
3.081739e+003;2.889038e+001
3.083667e+003;2.886215e+001
3.085595e+003;2.881536e+001
3.087524e+003;2.880454e+001
3.089453e+003;2.876559e+001
3.091381e+003;2.872215e+001
3.093310e+003;2.871611e+001
3.095238e+003;2.867156e+001
3.097167e+003;2.863554e+001
3.099095e+003;2.862349e+001
3.101023e+003;2.857643e+001
3.102952e+003;2.855115e+001
3.104881e+003;2.853532e+001
3.106809e+003;2.848271e+001
3.108738e+003;2.846613e+001
3.110666e+003;2.844374e+001
3.112594e+003;2.839284e+001
3.114523e+003;2.838058e+001
3.116451e+003;2.835148e+001
3.118380e+003;2.830404e+001
3.120309e+003;2.829893e+001
3.122237e+003;2.825752e+001
3.124166e+003;2.821291e+001
3.126094e+003;2.820936e+001
3.128022e+003;2.816451e+001
3.129951e+003;2.812640e+001
3.131879e+003;2.812298e+001
3.133808e+003;2.807106e+001
3.135737e+003;2.804417e+001
3.137665e+003;2.803824e+001
3.139594e+003;2.798186e+001
3.141522e+003;2.795895e+001
3.143450e+003;2.794940e+001
3.145379e+003;2.789029e+001
3.147307e+003;2.787595e+001
3.149236e+003;2.785895e+001
3.151165e+003;2.780462e+001
3.153093e+003;2.779535e+001
3.155021e+003;2.776881e+001
3.156950e+003;2.771267e+001
3.158878e+003;2.770929e+001
3.160807e+003;2.767857e+001
3.162735e+003;2.763072e+001
3.164664e+003;2.762666e+001
3.166593e+003;2.758908e+001
3.168521e+003;2.754695e+001
3.170449e+003;2.754320e+001
3.172378e+003;2.749759e+001
3.174306e+003;2.746322e+001
3.176235e+003;2.745671e+001
3.178163e+003;2.741103e+001
3.180092e+003;2.738244e+001
3.182021e+003;2.736856e+001
3.183949e+003;2.732192e+001
3.185877e+003;2.730489e+001
3.187806e+003;2.728333e+001
3.189734e+003;2.723586e+001
3.191663e+003;2.722136e+001
3.193591e+003;2.719533e+001
3.195520e+003;2.715187e+001
3.197448e+003;2.714104e+001
3.199377e+003;2.710602e+001
3.201305e+003;2.707082e+001
3.203234e+003;2.706074e+001
3.205162e+003;2.701942e+001
3.207091e+003;2.698822e+001
3.209019e+003;2.697922e+001
3.210948e+003;2.693293e+001
3.212876e+003;2.690894e+001
3.214805e+003;2.689405e+001
3.216733e+003;2.684607e+001
3.218662e+003;2.683097e+001
3.220590e+003;2.681246e+001
3.222519e+003;2.676109e+001
3.224447e+003;2.675151e+001
3.226376e+003;2.672681e+001
3.228304e+003;2.668143e+001
3.230233e+003;2.667563e+001
3.232161e+003;2.664328e+001
3.234090e+003;2.659924e+001
3.236018e+003;2.659784e+001
3.237947e+003;2.655859e+001
3.239875e+003;2.651951e+001
3.241804e+003;2.651705e+001
3.243732e+003;2.647489e+001
3.245661e+003;2.644241e+001
3.247589e+003;2.643886e+001
3.249518e+003;2.638931e+001
3.251446e+003;2.636392e+001
3.253375e+003;2.635580e+001
3.255303e+003;2.630515e+001
3.257232e+003;2.628390e+001
3.259160e+003;2.627389e+001
3.261089e+003;2.622510e+001
3.263017e+003;2.620981e+001
3.264946e+003;2.618983e+001
3.266874e+003;2.614382e+001
3.268803e+003;2.613432e+001
3.270731e+003;2.611072e+001
3.272660e+003;2.606643e+001
3.274588e+003;2.605778e+001
3.276517e+003;2.602736e+001
3.278445e+003;2.599084e+001
3.280374e+003;2.597850e+001
3.282302e+003;2.594268e+001
3.284231e+003;2.591359e+001
3.286159e+003;2.590377e+001
3.288088e+003;2.586384e+001
3.290016e+003;2.583970e+001
3.291945e+003;2.582308e+001
3.293873e+003;2.578403e+001
3.295802e+003;2.576528e+001
3.297730e+003;2.574328e+001
3.299659e+003;2.570296e+001
3.301587e+003;2.569220e+001
3.303516e+003;2.566611e+001
3.305444e+003;2.562920e+001
3.307373e+003;2.561662e+001
3.309301e+003;2.558420e+001
3.311230e+003;2.555065e+001
3.313158e+003;2.554221e+001
3.315087e+003;2.550244e+001
3.317015e+003;2.547554e+001
3.318944e+003;2.546777e+001
3.320872e+003;2.542416e+001
3.322801e+003;2.539899e+001
3.324729e+003;2.539008e+001
3.326658e+003;2.534661e+001
3.328586e+003;2.533137e+001
3.330515e+003;2.531411e+001
3.332443e+003;2.526734e+001
3.334372e+003;2.525687e+001
3.336300e+003;2.524047e+001
3.338229e+003;2.519391e+001
3.340157e+003;2.518343e+001
3.342086e+003;2.515981e+001
3.344014e+003;2.511975e+001
3.345943e+003;2.511207e+001
3.347871e+003;2.508257e+001
3.349800e+003;2.504471e+001
3.351728e+003;2.504146e+001
3.353657e+003;2.500701e+001
3.355585e+003;2.497126e+001
3.357514e+003;2.496364e+001
3.359442e+003;2.493058e+001
3.361371e+003;2.490205e+001
3.363299e+003;2.489100e+001
3.365228e+003;2.485138e+001
3.367156e+003;2.483172e+001
3.369085e+003;2.481996e+001
3.371013e+003;2.478089e+001
3.372942e+003;2.475909e+001
3.374870e+003;2.474255e+001
3.376799e+003;2.470837e+001
3.378727e+003;2.469234e+001
3.380656e+003;2.466593e+001
3.382584e+003;2.463464e+001
3.384513e+003;2.462187e+001
3.386441e+003;2.459290e+001
3.388370e+003;2.455976e+001
3.390298e+003;2.454723e+001
3.392227e+003;2.451843e+001
3.394155e+003;2.449621e+001
3.396083e+003;2.447661e+001
3.398012e+003;2.444123e+001
3.399941e+003;2.442524e+001
3.401869e+003;2.440947e+001
3.403798e+003;2.437022e+001
3.405726e+003;2.435336e+001
3.407655e+003;2.433377e+001
3.409583e+003;2.430238e+001
3.411511e+003;2.428911e+001
3.413440e+003;2.426119e+001
3.415369e+003;2.422803e+001
3.417297e+003;2.422353e+001
3.419226e+003;2.419300e+001
3.421154e+003;2.415869e+001
3.423083e+003;2.414939e+001
3.425011e+003;2.412084e+001
3.426939e+003;2.409333e+001
3.428868e+003;2.408364e+001
3.430797e+003;2.404650e+001
3.432725e+003;2.402555e+001
3.434654e+003;2.401834e+001
3.436582e+003;2.398007e+001
3.438510e+003;2.395378e+001
3.440439e+003;2.394431e+001
3.442367e+003;2.391072e+001
3.444296e+003;2.389076e+001
3.446225e+003;2.387048e+001
3.448153e+003;2.383702e+001
3.450082e+003;2.382659e+001
3.452010e+003;2.380931e+001
3.453938e+003;2.377049e+001
3.455867e+003;2.375581e+001
3.457795e+003;2.373656e+001
3.459724e+003;2.370830e+001
3.461653e+003;2.369159e+001
3.463581e+003;2.366516e+001
3.465510e+003;2.363978e+001
3.467438e+003;2.362927e+001
3.469366e+003;2.360109e+001
3.471295e+003;2.357509e+001
3.473223e+003;2.355946e+001
3.475152e+003;2.353561e+001
3.477081e+003;2.351372e+001
3.479009e+003;2.349100e+001
3.480938e+003;2.346343e+001
3.482866e+003;2.345152e+001
3.484794e+003;2.343040e+001
3.486723e+003;2.340061e+001
3.488651e+003;2.338206e+001
3.490580e+003;2.336164e+001
3.492509e+003;2.333865e+001
3.494437e+003;2.332213e+001
3.496365e+003;2.329061e+001
3.498294e+003;2.327115e+001
3.500222e+003;2.326137e+001
3.502151e+003;2.323144e+001
3.504079e+003;2.320644e+001
3.506008e+003;2.319406e+001
3.507937e+003;2.316733e+001
3.509865e+003;2.315001e+001
3.511793e+003;2.312937e+001
3.513722e+003;2.309888e+001
3.515650e+003;2.308794e+001
3.517579e+003;2.307201e+001
3.519507e+003;2.303480e+001
3.521436e+003;2.301817e+001
3.523365e+003;2.300394e+001
3.525293e+003;2.297928e+001
3.527221e+003;2.296137e+001
3.529150e+003;2.293702e+001
3.531078e+003;2.291128e+001
3.533007e+003;2.290350e+001
3.534935e+003;2.287967e+001
3.536864e+003;2.284820e+001
3.538792e+003;2.283454e+001
3.540721e+003;2.281864e+001
3.542649e+003;2.279464e+001
3.544578e+003;2.277615e+001
3.546506e+003;2.275079e+001
3.548435e+003;2.273367e+001
3.550363e+003;2.272013e+001
3.552292e+003;2.269371e+001
3.554220e+003;2.266680e+001
3.556149e+003;2.265374e+001
3.558077e+003;2.263548e+001
3.560006e+003;2.261398e+001
3.561934e+003;2.258924e+001
3.563863e+003;2.256943e+001
3.565791e+003;2.255430e+001
3.567720e+003;2.253529e+001
3.569648e+003;2.250953e+001
3.571577e+003;2.249036e+001
3.573505e+003;2.247470e+001
3.575434e+003;2.245881e+001
3.577362e+003;2.243454e+001
3.579291e+003;2.241094e+001
3.581219e+003;2.239653e+001
3.583148e+003;2.238286e+001
3.585076e+003;2.235756e+001
3.587005e+003;2.233415e+001
3.588933e+003;2.231619e+001
3.590862e+003;2.230343e+001
3.592790e+003;2.228538e+001
3.594719e+003;2.225952e+001
3.596647e+003;2.223680e+001
3.598576e+003;2.222680e+001
3.600504e+003;2.220756e+001
3.602433e+003;2.218197e+001
3.604361e+003;2.216250e+001
3.606290e+003;2.214863e+001
3.608218e+003;2.213045e+001
3.610147e+003;2.211086e+001
3.612075e+003;2.208513e+001
3.614004e+003;2.206886e+001
3.615932e+003;2.205824e+001
3.617861e+003;2.203667e+001
3.619789e+003;2.200900e+001
3.621718e+003;2.199681e+001
3.623646e+003;2.198508e+001
3.625575e+003;2.196616e+001
3.627503e+003;2.194091e+001
3.629432e+003;2.192119e+001
3.631360e+003;2.190747e+001
3.633289e+003;2.189657e+001
3.635217e+003;2.187351e+001
3.637146e+003;2.184976e+001
3.639074e+003;2.183890e+001
3.641003e+003;2.182492e+001
3.642931e+003;2.179744e+001
3.644860e+003;2.177781e+001
3.646788e+003;2.176187e+001
3.648717e+003;2.174466e+001
3.650645e+003;2.172859e+001
3.652574e+003;2.170727e+001
3.654502e+003;2.168603e+001
3.656431e+003;2.167850e+001
3.658359e+003;2.166035e+001
3.660288e+003;2.163653e+001
3.662216e+003;2.162142e+001
3.664145e+003;2.160825e+001
3.666073e+003;2.159207e+001
3.668002e+003;2.157348e+001
3.669930e+003;2.154644e+001
3.671859e+003;2.153652e+001
3.673787e+003;2.152610e+001
3.675716e+003;2.149911e+001
3.677644e+003;2.147900e+001
3.679573e+003;2.146759e+001
3.681501e+003;2.145185e+001
3.683430e+003;2.143778e+001
3.685358e+003;2.141284e+001
3.687287e+003;2.138951e+001
3.689215e+003;2.138341e+001
3.691144e+003;2.136871e+001
3.693072e+003;2.134284e+001
3.695001e+003;2.133093e+001
3.696929e+003;2.131536e+001
3.698858e+003;2.130031e+001
3.700786e+003;2.128409e+001
3.702715e+003;2.125659e+001
3.704643e+003;2.124301e+001
3.706572e+003;2.123977e+001
3.708500e+003;2.121265e+001
3.710429e+003;2.119074e+001
3.712357e+003;2.117855e+001
3.714286e+003;2.116364e+001
3.716214e+003;2.115254e+001
3.718143e+003;2.113169e+001
3.720071e+003;2.110498e+001
3.722000e+003;2.110410e+001
3.723928e+003;2.108952e+001
3.725857e+003;2.106090e+001
3.727785e+003;2.104786e+001
3.729714e+003;2.103472e+001
3.731642e+003;2.101758e+001
3.733571e+003;2.100971e+001
3.735499e+003;2.098054e+001
3.737427e+003;2.096469e+001
3.739356e+003;2.096422e+001
3.741285e+003;2.093833e+001
3.743213e+003;2.090836e+001
3.745142e+003;2.089631e+001
3.747070e+003;2.087853e+001
3.748999e+003;2.086876e+001
3.750927e+003;2.084859e+001
3.752855e+003;2.081928e+001
3.754784e+003;2.081871e+001
3.756713e+003;2.080894e+001
3.758641e+003;2.077683e+001
3.760570e+003;2.076620e+001
3.762498e+003;2.075306e+001
3.764427e+003;2.073646e+001
3.766355e+003;2.072975e+001
3.768283e+003;2.070000e+001
3.770212e+003;2.068003e+001
3.772141e+003;2.068576e+001
3.774069e+003;2.065982e+001
3.775998e+003;2.063613e+001
3.777926e+003;2.062749e+001
3.779854e+003;2.060761e+001
3.781783e+003;2.060210e+001
3.783711e+003;2.059030e+001
3.785640e+003;2.055377e+001
3.787569e+003;2.055274e+001
3.789497e+003;2.054881e+001
3.791426e+003;2.051624e+001
3.793354e+003;2.050557e+001
3.795282e+003;2.049250e+001
3.797211e+003;2.046922e+001
3.799139e+003;2.046879e+001
3.801068e+003;2.043990e+001
3.802997e+003;2.041578e+001
3.804925e+003;2.042481e+001
3.806854e+003;2.040510e+001
3.808782e+003;2.037859e+001
3.810710e+003;2.037579e+001
3.812639e+003;2.035504e+001
3.814567e+003;2.034273e+001
3.816496e+003;2.033338e+001
3.818425e+003;2.030088e+001
3.820353e+003;2.029353e+001
3.822281e+003;2.029722e+001
3.824210e+003;2.026625e+001
3.826138e+003;2.025380e+001
3.828067e+003;2.024447e+001
3.829995e+003;2.022478e+001
3.831924e+003;2.022087e+001
3.833853e+003;2.019661e+001
3.835781e+003;2.016851e+001
3.837709e+003;2.017657e+001
3.839638e+003;2.015911e+001
3.841566e+003;2.013389e+001
3.843495e+003;2.013078e+001
3.845423e+003;2.011120e+001
3.847352e+003;2.010076e+001
3.849281e+003;2.009669e+001
3.851209e+003;2.005645e+001
3.853137e+003;2.004984e+001
3.855066e+003;2.005449e+001
3.856994e+003;2.002149e+001
3.858923e+003;2.001188e+001
3.860851e+003;2.000555e+001
3.862780e+003;1.997964e+001
3.864708e+003;1.998491e+001
3.866637e+003;1.996288e+001
3.868565e+003;1.992722e+001
3.870494e+003;1.994104e+001
3.872422e+003;1.992877e+001
3.874351e+003;1.989364e+001
3.876279e+003;1.989918e+001
3.878208e+003;1.987683e+001
3.880136e+003;1.985962e+001
3.882065e+003;1.986656e+001
3.883993e+003;1.982903e+001
3.885922e+003;1.981392e+001
3.887850e+003;1.983234e+001
3.889779e+003;1.979721e+001
3.891707e+003;1.977785e+001
3.893636e+003;1.977760e+001
3.895564e+003;1.975264e+001
3.897493e+003;1.975228e+001
3.899421e+003;1.974148e+001
3.901350e+003;1.970215e+001
3.903278e+003;1.971046e+001
3.905207e+003;1.970317e+001
3.907135e+003;1.967032e+001
3.909064e+003;1.966982e+001
3.910992e+003;1.965473e+001
3.912921e+003;1.963740e+001
3.914849e+003;1.964355e+001
3.916778e+003;1.960721e+001
3.918706e+003;1.959048e+001
3.920635e+003;1.960517e+001
3.922563e+003;1.957724e+001
3.924492e+003;1.955957e+001
3.926420e+003;1.955882e+001
3.928349e+003;1.953120e+001
3.930277e+003;1.953502e+001
3.932206e+003;1.952279e+001
3.934134e+003;1.948143e+001
3.936063e+003;1.949330e+001
3.937991e+003;1.948996e+001
3.939920e+003;1.945296e+001
3.941848e+003;1.945670e+001
3.943777e+003;1.943715e+001
3.945705e+003;1.941779e+001
3.947634e+003;1.943241e+001
3.949562e+003;1.939732e+001
3.951491e+003;1.937372e+001
3.953419e+003;1.939928e+001
3.955348e+003;1.936495e+001
3.957276e+003;1.934205e+001
3.959205e+003;1.935132e+001
3.961133e+003;1.932059e+001
3.963062e+003;1.931878e+001
3.964990e+003;1.932280e+001
3.966919e+003;1.927382e+001
3.968847e+003;1.927909e+001
3.970776e+003;1.928633e+001
3.972704e+003;1.924364e+001
3.974633e+003;1.924397e+001
3.976561e+003;1.923832e+001
3.978490e+003;1.921025e+001
3.980418e+003;1.922575e+001
3.982347e+003;1.919911e+001
3.984275e+003;1.916435e+001
3.986204e+003;1.918853e+001
3.988132e+003;1.917075e+001
3.990061e+003;1.913986e+001
3.991989e+003;1.914698e+001
3.993918e+003;1.912082e+001
3.995846e+003;1.911740e+001
3.997775e+003;1.912158e+001
3.999703e+003;1.907836e+001
