3.991989e+002;5.036769e+001
4.011274e+002;5.023862e+001
4.030559e+002;5.044981e+001
4.049844e+002;5.060765e+001
4.069129e+002;4.983934e+001
4.088414e+002;4.963646e+001
4.107699e+002;4.993206e+001
4.126984e+002;4.987016e+001
4.146269e+002;4.927588e+001
4.165554e+002;4.899005e+001
4.184839e+002;4.871402e+001
4.204124e+002;4.842385e+001
4.223409e+002;4.833816e+001
4.242694e+002;4.785904e+001
4.261979e+002;4.733912e+001
4.281264e+002;4.714954e+001
4.300549e+002;4.683372e+001
4.319834e+002;4.614479e+001
4.339119e+002;4.565219e+001
4.358404e+002;4.535312e+001
4.377689e+002;4.502798e+001
4.396974e+002;4.448926e+001
4.416259e+002;4.385935e+001
4.435544e+002;4.327832e+001
4.454829e+002;4.267931e+001
4.474114e+002;4.216148e+001
4.493399e+002;4.175837e+001
4.512684e+002;4.133442e+001
4.531969e+002;4.093223e+001
4.551254e+002;4.055684e+001
4.570539e+002;4.043253e+001
4.589824e+002;4.041278e+001
4.609109e+002;4.035997e+001
4.628394e+002;4.051741e+001
4.647679e+002;4.101891e+001
4.666964e+002;4.155235e+001
4.686248e+002;4.215834e+001
4.705533e+002;4.295148e+001
4.724818e+002;4.385690e+001
4.744103e+002;4.476260e+001
4.763388e+002;4.567718e+001
4.782673e+002;4.646225e+001
4.801958e+002;4.707620e+001
4.821243e+002;4.751088e+001
4.840528e+002;4.788019e+001
4.859813e+002;4.819271e+001
4.879098e+002;4.842013e+001
4.898383e+002;4.871447e+001
4.917668e+002;4.891135e+001
4.936953e+002;4.898030e+001
4.956238e+002;4.904208e+001
4.975523e+002;4.903397e+001
4.994808e+002;4.902393e+001
5.014093e+002;4.896712e+001
5.033378e+002;4.884667e+001
5.052663e+002;4.870464e+001
5.071948e+002;4.851910e+001
5.091233e+002;4.819414e+001
5.110518e+002;4.778566e+001
5.129803e+002;4.743471e+001
5.149088e+002;4.750287e+001
5.168373e+002;4.797150e+001
5.187657e+002;4.839832e+001
5.206943e+002;4.856740e+001
5.226227e+002;4.858987e+001
5.245513e+002;4.859457e+001
5.264797e+002;4.862369e+001
5.284083e+002;4.863094e+001
5.303367e+002;4.859857e+001
5.322653e+002;4.848925e+001
5.341937e+002;4.832857e+001
5.361223e+002;4.822640e+001
5.380507e+002;4.812895e+001
5.399792e+002;4.796946e+001
5.419077e+002;4.782386e+001
5.438362e+002;4.764092e+001
5.457647e+002;4.744857e+001
5.476932e+002;4.722671e+001
5.496217e+002;4.698595e+001
5.515502e+002;4.678936e+001
5.534787e+002;4.659560e+001
5.554072e+002;4.635514e+001
5.573357e+002;4.613742e+001
5.592642e+002;4.589164e+001
5.611927e+002;4.566651e+001
5.631212e+002;4.542207e+001
5.650497e+002;4.519041e+001
5.669782e+002;4.501646e+001
5.689067e+002;4.506644e+001
5.708352e+002;4.533912e+001
5.727637e+002;4.548064e+001
5.746922e+002;4.545673e+001
5.766207e+002;4.533658e+001
5.785492e+002;4.512790e+001
5.804777e+002;4.483811e+001
5.824062e+002;4.448314e+001
5.843347e+002;4.405069e+001
5.862632e+002;4.351080e+001
5.881917e+002;4.287216e+001
5.901202e+002;4.212078e+001
5.920486e+002;4.121248e+001
5.939772e+002;4.014693e+001
5.959056e+002;3.895853e+001
5.978342e+002;3.757126e+001
5.997626e+002;3.583579e+001
6.016912e+002;3.390646e+001
6.036196e+002;3.237437e+001
6.055482e+002;3.124217e+001
6.074766e+002;3.018124e+001
6.094052e+002;2.932206e+001
6.113336e+002;2.921528e+001
6.132621e+002;2.968082e+001
6.151906e+002;2.994941e+001
6.171191e+002;2.996185e+001
6.190476e+002;2.998811e+001
6.209761e+002;3.020782e+001
6.229046e+002;3.128683e+001
6.248331e+002;3.370701e+001
6.267616e+002;3.689613e+001
6.286901e+002;4.005350e+001
6.306186e+002;4.222760e+001
6.325471e+002;4.318566e+001
6.344756e+002;4.345475e+001
6.364041e+002;4.353445e+001
6.383326e+002;4.358593e+001
6.402611e+002;4.364177e+001
6.421896e+002;4.372398e+001
6.441181e+002;4.383522e+001
6.460466e+002;4.394950e+001
6.479751e+002;4.405851e+001
6.499036e+002;4.417580e+001
6.518321e+002;4.429917e+001
6.537606e+002;4.443335e+001
6.556891e+002;4.456707e+001
6.576176e+002;4.471380e+001
6.595461e+002;4.489500e+001
6.614745e+002;4.508637e+001
6.634031e+002;4.528926e+001
6.653315e+002;4.550368e+001
6.672601e+002;4.569989e+001
6.691885e+002;4.590271e+001
6.711171e+002;4.610955e+001
6.730455e+002;4.631633e+001
6.749741e+002;4.654692e+001
6.769025e+002;4.677507e+001
6.788311e+002;4.697868e+001
6.807595e+002;4.717393e+001
6.826880e+002;4.735317e+001
6.846165e+002;4.751458e+001
6.865450e+002;4.769683e+001
6.884735e+002;4.790844e+001
6.904020e+002;4.813864e+001
6.923305e+002;4.837166e+001
6.942590e+002;4.860897e+001
6.961875e+002;4.888445e+001
6.981160e+002;4.916336e+001
7.000445e+002;4.937733e+001
7.019730e+002;4.952637e+001
7.039015e+002;4.959283e+001
7.058300e+002;4.958332e+001
7.077585e+002;4.950533e+001
7.096870e+002;4.931518e+001
7.116155e+002;4.898241e+001
7.135440e+002;4.851300e+001
7.154725e+002;4.800652e+001
7.174010e+002;4.760294e+001
7.193295e+002;4.730496e+001
7.212580e+002;4.702805e+001
7.231865e+002;4.675873e+001
7.251150e+002;4.649945e+001
7.270435e+002;4.626101e+001
7.289720e+002;4.604148e+001
7.309005e+002;4.582073e+001
7.328290e+002;4.559483e+001
7.347574e+002;4.538329e+001
7.366860e+002;4.520388e+001
7.386144e+002;4.511684e+001
7.405430e+002;4.525894e+001
7.424714e+002;4.560756e+001
7.444000e+002;4.597971e+001
7.463284e+002;4.626723e+001
7.482570e+002;4.647539e+001
7.501854e+002;4.663557e+001
7.521140e+002;4.678132e+001
7.540424e+002;4.691078e+001
7.559709e+002;4.701757e+001
7.578994e+002;4.711063e+001
7.598279e+002;4.718015e+001
7.617564e+002;4.722985e+001
7.636849e+002;4.726818e+001
7.656134e+002;4.729467e+001
7.675419e+002;4.730970e+001
7.694704e+002;4.729851e+001
7.713989e+002;4.724820e+001
7.733274e+002;4.716536e+001
7.752559e+002;4.704905e+001
7.771844e+002;4.692604e+001
7.791129e+002;4.682113e+001
7.810414e+002;4.672502e+001
7.829699e+002;4.662872e+001
7.848984e+002;4.653265e+001
7.868269e+002;4.643618e+001
7.887554e+002;4.635205e+001
7.906839e+002;4.629124e+001
7.926124e+002;4.627821e+001
7.945409e+002;4.633454e+001
7.964694e+002;4.648561e+001
7.983979e+002;4.672559e+001
8.003264e+002;4.683464e+001
8.022549e+002;4.670422e+001
8.041833e+002;4.648549e+001
8.061119e+002;4.626352e+001
8.080403e+002;4.609489e+001
8.099689e+002;4.598076e+001
8.118973e+002;4.588941e+001
8.138259e+002;4.578876e+001
8.157543e+002;4.572012e+001
8.176829e+002;4.573924e+001
8.196113e+002;4.583823e+001
8.215399e+002;4.598907e+001
8.234683e+002;4.618893e+001
8.253969e+002;4.641619e+001
8.273253e+002;4.666644e+001
8.292538e+002;4.693724e+001
8.311823e+002;4.718496e+001
8.331108e+002;4.735965e+001
8.350393e+002;4.743139e+001
8.369678e+002;4.740960e+001
8.388963e+002;4.732800e+001
8.408248e+002;4.722762e+001
8.427533e+002;4.715118e+001
8.446818e+002;4.713757e+001
8.466103e+002;4.721002e+001
8.485388e+002;4.732232e+001
8.504673e+002;4.743487e+001
8.523958e+002;4.753493e+001
8.543243e+002;4.761901e+001
8.562528e+002;4.766481e+001
8.581813e+002;4.768089e+001
8.601098e+002;4.764405e+001
8.620383e+002;4.755975e+001
8.639668e+002;4.746630e+001
8.658953e+002;4.738674e+001
8.678238e+002;4.730556e+001
8.697523e+002;4.720063e+001
8.716808e+002;4.706500e+001
8.736093e+002;4.690582e+001
8.755378e+002;4.671347e+001
8.774662e+002;4.650362e+001
8.793948e+002;4.628845e+001
8.813232e+002;4.607816e+001
8.832518e+002;4.589858e+001
8.851802e+002;4.577189e+001
8.871088e+002;4.569656e+001
8.890372e+002;4.568208e+001
8.909658e+002;4.572030e+001
8.928942e+002;4.580547e+001
8.948227e+002;4.594122e+001
8.967512e+002;4.611412e+001
8.986797e+002;4.630502e+001
9.006082e+002;4.651594e+001
9.025367e+002;4.671147e+001
9.044652e+002;4.688066e+001
9.063937e+002;4.705420e+001
9.083222e+002;4.723714e+001
9.102507e+002;4.742669e+001
9.121792e+002;4.764511e+001
9.141077e+002;4.786603e+001
9.160362e+002;4.806058e+001
9.179647e+002;4.822366e+001
9.198932e+002;4.835683e+001
9.218217e+002;4.847715e+001
9.237502e+002;4.860294e+001
9.256786e+002;4.871484e+001
9.276072e+002;4.881364e+001
9.295356e+002;4.889595e+001
9.314642e+002;4.896291e+001
9.333926e+002;4.901949e+001
9.353212e+002;4.907025e+001
9.372496e+002;4.911148e+001
9.391782e+002;4.914928e+001
9.411066e+002;4.916747e+001
9.430352e+002;4.915593e+001
9.449636e+002;4.911434e+001
9.468922e+002;4.906100e+001
9.488206e+002;4.900571e+001
9.507491e+002;4.895715e+001
9.526776e+002;4.890711e+001
9.546061e+002;4.885145e+001
9.565346e+002;4.879647e+001
9.584631e+002;4.874320e+001
9.603916e+002;4.870415e+001
9.623201e+002;4.867826e+001
9.642486e+002;4.865709e+001
9.661771e+002;4.864531e+001
9.681056e+002;4.862952e+001
9.700341e+002;4.861206e+001
9.719626e+002;4.860736e+001
9.738911e+002;4.861200e+001
9.758196e+002;4.862128e+001
9.777481e+002;4.863418e+001
9.796766e+002;4.864373e+001
9.816051e+002;4.864110e+001
9.835336e+002;4.863476e+001
9.854621e+002;4.862473e+001
9.873906e+002;4.860629e+001
9.893191e+002;4.857872e+001
9.912476e+002;4.852093e+001
9.931761e+002;4.842973e+001
9.951046e+002;4.830263e+001
9.970331e+002;4.813152e+001
9.989615e+002;4.793041e+001
1.000890e+003;4.769995e+001
1.002819e+003;4.741938e+001
1.004747e+003;4.708485e+001
1.006676e+003;4.669728e+001
1.008604e+003;4.624942e+001
1.010533e+003;4.574569e+001
1.012461e+003;4.520069e+001
1.014390e+003;4.460624e+001
1.016318e+003;4.396925e+001
1.018247e+003;4.328334e+001
1.020175e+003;4.254380e+001
1.022104e+003;4.177369e+001
1.024032e+003;4.098014e+001
1.025961e+003;4.017005e+001
1.027889e+003;3.935938e+001
1.029818e+003;3.854625e+001
1.031746e+003;3.772861e+001
1.033675e+003;3.692280e+001
1.035603e+003;3.613853e+001
1.037531e+003;3.537691e+001
1.039460e+003;3.464265e+001
1.041389e+003;3.393150e+001
1.043317e+003;3.324700e+001
1.045245e+003;3.259291e+001
1.047174e+003;3.196725e+001
1.049103e+003;3.137806e+001
1.051031e+003;3.082864e+001
1.052959e+003;3.031541e+001
1.054888e+003;2.984213e+001
1.056817e+003;2.940269e+001
1.058745e+003;2.899379e+001
1.060673e+003;2.862686e+001
1.062602e+003;2.830100e+001
1.064531e+003;2.801383e+001
1.066459e+003;2.776882e+001
1.068387e+003;2.755578e+001
1.070316e+003;2.737181e+001
1.072245e+003;2.722987e+001
1.074173e+003;2.711950e+001
1.076101e+003;2.704264e+001
1.078030e+003;2.700849e+001
1.079958e+003;2.700559e+001
1.081887e+003;2.703690e+001
1.083815e+003;2.710605e+001
1.085744e+003;2.720777e+001
1.087672e+003;2.734896e+001
1.089601e+003;2.753896e+001
1.091529e+003;2.777926e+001
1.093458e+003;2.808401e+001
1.095386e+003;2.846305e+001
1.097315e+003;2.892585e+001
1.099243e+003;2.949829e+001
1.101172e+003;3.019155e+001
1.103100e+003;3.101334e+001
1.105029e+003;3.197713e+001
1.106957e+003;3.306493e+001
1.108886e+003;3.425313e+001
1.110814e+003;3.552075e+001
1.112743e+003;3.683020e+001
1.114671e+003;3.814894e+001
1.116600e+003;3.944869e+001
1.118528e+003;4.068979e+001
1.120457e+003;4.184438e+001
1.122385e+003;4.289859e+001
1.124314e+003;4.384378e+001
1.126242e+003;4.468176e+001
1.128171e+003;4.540874e+001
1.130099e+003;4.601601e+001
1.132028e+003;4.650906e+001
1.133956e+003;4.689165e+001
1.135885e+003;4.717785e+001
1.137813e+003;4.740203e+001
1.139742e+003;4.758209e+001
1.141670e+003;4.773029e+001
1.143599e+003;4.786261e+001
1.145527e+003;4.797306e+001
1.147456e+003;4.806407e+001
1.149384e+003;4.814396e+001
1.151313e+003;4.821505e+001
1.153241e+003;4.827729e+001
1.155170e+003;4.834206e+001
1.157098e+003;4.840325e+001
1.159027e+003;4.846225e+001
1.160955e+003;4.851944e+001
1.162884e+003;4.856871e+001
1.164812e+003;4.862048e+001
1.166741e+003;4.867919e+001
1.168669e+003;4.873956e+001
1.170598e+003;4.880558e+001
1.172526e+003;4.887082e+001
1.174455e+003;4.892779e+001
1.176383e+003;4.898808e+001
1.178312e+003;4.904648e+001
1.180240e+003;4.911070e+001
1.182169e+003;4.919801e+001
1.184097e+003;4.926926e+001
1.186026e+003;4.933900e+001
1.187954e+003;4.941264e+001
1.189883e+003;4.948634e+001
1.191811e+003;4.956206e+001
1.193740e+003;4.964828e+001
1.195668e+003;4.973428e+001
1.197597e+003;4.981790e+001
1.199525e+003;4.989908e+001
1.201454e+003;4.997452e+001
1.203382e+003;5.005180e+001
1.205311e+003;5.013377e+001
1.207239e+003;5.021449e+001
1.209168e+003;5.029679e+001
1.211096e+003;5.037332e+001
1.213025e+003;5.043812e+001
1.214953e+003;5.049837e+001
1.216882e+003;5.055743e+001
1.218810e+003;5.061488e+001
1.220739e+003;5.067283e+001
1.222667e+003;5.072363e+001
1.224596e+003;5.076782e+001
1.226524e+003;5.081008e+001
1.228453e+003;5.085288e+001
1.230381e+003;5.089871e+001
1.232310e+003;5.094839e+001
1.234238e+003;5.099204e+001
1.236167e+003;5.102767e+001
1.238095e+003;5.105521e+001
1.240024e+003;5.107236e+001
1.241952e+003;5.108572e+001
1.243881e+003;5.110036e+001
1.245809e+003;5.111005e+001
1.247738e+003;5.111571e+001
1.249666e+003;5.111493e+001
1.251595e+003;5.110588e+001
1.253523e+003;5.109846e+001
1.255452e+003;5.109724e+001
1.257380e+003;5.110061e+001
1.259309e+003;5.111511e+001
1.261237e+003;5.113575e+001
1.263166e+003;5.115851e+001
1.265094e+003;5.119086e+001
1.267023e+003;5.123050e+001
1.268951e+003;5.127311e+001
1.270880e+003;5.131936e+001
1.272808e+003;5.135503e+001
1.274737e+003;5.137653e+001
1.276665e+003;5.139174e+001
1.278594e+003;5.139765e+001
1.280522e+003;5.139874e+001
1.282451e+003;5.140293e+001
1.284379e+003;5.140331e+001
1.286308e+003;5.139892e+001
1.288236e+003;5.139171e+001
1.290165e+003;5.138109e+001
1.292093e+003;5.137348e+001
1.294022e+003;5.137153e+001
1.295950e+003;5.137174e+001
1.297879e+003;5.137597e+001
1.299807e+003;5.138069e+001
1.301736e+003;5.138327e+001
1.303664e+003;5.138801e+001
1.305593e+003;5.139831e+001
1.307521e+003;5.141354e+001
1.309450e+003;5.143527e+001
1.311378e+003;5.145630e+001
1.313307e+003;5.147363e+001
1.315235e+003;5.149193e+001
1.317164e+003;5.151309e+001
1.319092e+003;5.153780e+001
1.321021e+003;5.156740e+001
1.322949e+003;5.159665e+001
1.324878e+003;5.162254e+001
1.326806e+003;5.164520e+001
1.328735e+003;5.166348e+001
1.330663e+003;5.168187e+001
1.332592e+003;5.170253e+001
1.334520e+003;5.172170e+001
1.336449e+003;5.173679e+001
1.338377e+003;5.174541e+001
1.340306e+003;5.174562e+001
1.342234e+003;5.174374e+001
1.344163e+003;5.174376e+001
1.346091e+003;5.174119e+001
1.348020e+003;5.173486e+001
1.349948e+003;5.172508e+001
1.351877e+003;5.170700e+001
1.353805e+003;5.168518e+001
1.355734e+003;5.166483e+001
1.357662e+003;5.164593e+001
1.359591e+003;5.163026e+001
1.361519e+003;5.161635e+001
1.363448e+003;5.159767e+001
1.365376e+003;5.157553e+001
1.367305e+003;5.155745e+001
1.369233e+003;5.154121e+001
1.371161e+003;5.152993e+001
1.373090e+003;5.152349e+001
1.375019e+003;5.151165e+001
1.376947e+003;5.149799e+001
1.378875e+003;5.148676e+001
1.380804e+003;5.147712e+001
1.382733e+003;5.147241e+001
1.384661e+003;5.147154e+001
1.386589e+003;5.146746e+001
1.388518e+003;5.146159e+001
1.390447e+003;5.145314e+001
1.392375e+003;5.144070e+001
1.394303e+003;5.143216e+001
1.396232e+003;5.143186e+001
1.398161e+003;5.143106e+001
1.400089e+003;5.142771e+001
1.402017e+003;5.141681e+001
1.403946e+003;5.140144e+001
1.405875e+003;5.138987e+001
1.407803e+003;5.137571e+001
1.409731e+003;5.136119e+001
1.411660e+003;5.134770e+001
1.413589e+003;5.132468e+001
1.415517e+003;5.129484e+001
1.417445e+003;5.125606e+001
1.419374e+003;5.121156e+001
1.421302e+003;5.119113e+001
1.423231e+003;5.116797e+001
1.425159e+003;5.112516e+001
1.427088e+003;5.107921e+001
1.429016e+003;5.103107e+001
1.430945e+003;5.097825e+001
1.432873e+003;5.093173e+001
1.434802e+003;5.088164e+001
1.436730e+003;5.083131e+001
1.438659e+003;5.079499e+001
1.440587e+003;5.075336e+001
1.442516e+003;5.071160e+001
1.444444e+003;5.068612e+001
1.446373e+003;5.066924e+001
1.448301e+003;5.066245e+001
1.450230e+003;5.066883e+001
1.452158e+003;5.067757e+001
1.454087e+003;5.069698e+001
1.456015e+003;5.073491e+001
1.457944e+003;5.076949e+001
1.459872e+003;5.081576e+001
1.461801e+003;5.087256e+001
1.463729e+003;5.092091e+001
1.465658e+003;5.096955e+001
1.467586e+003;5.101550e+001
1.469515e+003;5.105588e+001
1.471443e+003;5.109819e+001
1.473372e+003;5.115399e+001
1.475300e+003;5.120008e+001
1.477229e+003;5.123883e+001
1.479157e+003;5.127147e+001
1.481086e+003;5.129996e+001
1.483014e+003;5.133314e+001
1.484943e+003;5.136108e+001
1.486871e+003;5.138599e+001
1.488800e+003;5.141118e+001
1.490728e+003;5.142130e+001
1.492657e+003;5.143338e+001
1.494585e+003;5.144435e+001
1.496514e+003;5.144759e+001
1.498442e+003;5.146603e+001
1.500371e+003;5.148395e+001
1.502299e+003;5.148373e+001
1.504228e+003;5.147807e+001
1.506156e+003;5.146884e+001
1.508085e+003;5.146556e+001
1.510013e+003;5.147700e+001
1.511942e+003;5.147790e+001
1.513870e+003;5.146825e+001
1.515799e+003;5.146390e+001
1.517727e+003;5.145469e+001
1.519656e+003;5.142740e+001
1.521584e+003;5.141712e+001
1.523513e+003;5.142454e+001
1.525441e+003;5.141838e+001
1.527370e+003;5.140982e+001
1.529298e+003;5.139404e+001
1.531227e+003;5.137843e+001
1.533155e+003;5.137184e+001
1.535084e+003;5.135720e+001
1.537012e+003;5.134658e+001
1.538941e+003;5.133274e+001
1.540869e+003;5.130789e+001
1.542798e+003;5.130006e+001
1.544726e+003;5.128939e+001
1.546655e+003;5.127303e+001
1.548583e+003;5.126449e+001
1.550512e+003;5.125484e+001
1.552440e+003;5.122619e+001
1.554369e+003;5.120498e+001
1.556297e+003;5.119365e+001
1.558226e+003;5.117015e+001
1.560154e+003;5.115281e+001
1.562083e+003;5.115428e+001
1.564011e+003;5.114300e+001
1.565940e+003;5.113174e+001
1.567868e+003;5.111204e+001
1.569797e+003;5.109350e+001
1.571725e+003;5.108375e+001
1.573654e+003;5.105846e+001
1.575582e+003;5.102394e+001
1.577511e+003;5.102166e+001
1.579439e+003;5.101488e+001
1.581368e+003;5.099925e+001
1.583296e+003;5.098640e+001
1.585225e+003;5.096527e+001
1.587153e+003;5.095515e+001
1.589082e+003;5.094286e+001
1.591010e+003;5.091845e+001
1.592939e+003;5.090311e+001
1.594867e+003;5.088662e+001
1.596796e+003;5.086629e+001
1.598724e+003;5.085787e+001
1.600653e+003;5.084254e+001
1.602581e+003;5.082098e+001
1.604510e+003;5.080846e+001
1.606438e+003;5.078795e+001
1.608367e+003;5.076823e+001
1.610295e+003;5.076022e+001
1.612224e+003;5.074271e+001
1.614152e+003;5.072490e+001
1.616081e+003;5.070889e+001
1.618009e+003;5.068499e+001
1.619938e+003;5.067001e+001
1.621866e+003;5.065634e+001
1.623795e+003;5.063446e+001
1.625723e+003;5.062503e+001
1.627652e+003;5.061288e+001
1.629580e+003;5.059040e+001
1.631509e+003;5.057848e+001
1.633437e+003;5.056437e+001
1.635366e+003;5.054652e+001
1.637294e+003;5.053849e+001
1.639223e+003;5.052332e+001
1.641151e+003;5.050161e+001
1.643080e+003;5.049084e+001
1.645008e+003;5.047078e+001
1.646937e+003;5.045077e+001
1.648865e+003;5.044592e+001
1.650794e+003;5.042168e+001
1.652722e+003;5.038345e+001
1.654651e+003;5.038496e+001
1.656579e+003;5.037753e+001
1.658508e+003;5.036333e+001
1.660436e+003;5.035672e+001
1.662365e+003;5.033818e+001
1.664293e+003;5.032489e+001
1.666222e+003;5.030856e+001
1.668150e+003;5.027863e+001
1.670079e+003;5.026682e+001
1.672007e+003;5.025889e+001
1.673936e+003;5.023162e+001
1.675864e+003;5.022195e+001
1.677793e+003;5.021413e+001
1.679721e+003;5.019183e+001
1.681650e+003;5.017719e+001
1.683578e+003;5.015772e+001
1.685507e+003;5.014470e+001
1.687435e+003;5.013608e+001
1.689364e+003;5.011354e+001
1.691292e+003;5.008987e+001
1.693221e+003;5.007530e+001
1.695149e+003;5.005138e+001
1.697078e+003;5.002737e+001
1.699006e+003;4.999472e+001
1.700935e+003;4.996745e+001
1.702863e+003;4.996059e+001
1.704792e+003;4.993962e+001
1.706720e+003;4.990575e+001
1.708649e+003;4.988498e+001
1.710577e+003;4.986288e+001
1.712505e+003;4.983223e+001
1.714434e+003;4.981371e+001
1.716363e+003;4.978458e+001
1.718291e+003;4.975223e+001
1.720219e+003;4.974162e+001
1.722148e+003;4.972559e+001
1.724077e+003;4.970870e+001
1.726005e+003;4.970249e+001
1.727933e+003;4.968267e+001
1.729862e+003;4.966560e+001
1.731791e+003;4.965486e+001
1.733719e+003;4.963665e+001
1.735647e+003;4.963569e+001
1.737576e+003;4.963385e+001
1.739505e+003;4.961503e+001
1.741433e+003;4.960207e+001
1.743361e+003;4.958836e+001
1.745290e+003;4.956445e+001
1.747219e+003;4.955218e+001
1.749147e+003;4.953606e+001
1.751075e+003;4.951200e+001
1.753004e+003;4.950067e+001
1.754932e+003;4.947920e+001
1.756861e+003;4.945129e+001
1.758789e+003;4.943885e+001
1.760718e+003;4.941880e+001
1.762646e+003;4.939655e+001
1.764575e+003;4.938127e+001
1.766503e+003;4.935159e+001
1.768432e+003;4.932526e+001
1.770360e+003;4.931101e+001
1.772289e+003;4.928645e+001
1.774217e+003;4.926952e+001
1.776146e+003;4.925467e+001
1.778074e+003;4.922640e+001
1.780003e+003;4.920585e+001
1.781931e+003;4.918653e+001
1.783860e+003;4.915535e+001
1.785788e+003;4.914071e+001
1.787717e+003;4.912449e+001
1.789645e+003;4.909384e+001
1.791574e+003;4.907291e+001
1.793502e+003;4.905046e+001
1.795431e+003;4.902470e+001
1.797359e+003;4.901138e+001
1.799288e+003;4.898712e+001
1.801216e+003;4.896196e+001
1.803145e+003;4.894667e+001
1.805073e+003;4.891707e+001
1.807002e+003;4.889180e+001
1.808930e+003;4.887635e+001
1.810859e+003;4.884737e+001
1.812787e+003;4.882619e+001
1.814716e+003;4.880721e+001
1.816644e+003;4.877409e+001
1.818573e+003;4.875238e+001
1.820501e+003;4.873257e+001
1.822430e+003;4.870119e+001
1.824358e+003;4.868284e+001
1.826287e+003;4.865922e+001
1.828215e+003;4.862535e+001
1.830144e+003;4.860603e+001
1.832072e+003;4.858023e+001
1.834001e+003;4.855045e+001
1.835929e+003;4.853531e+001
1.837858e+003;4.850716e+001
1.839786e+003;4.847722e+001
1.841715e+003;4.845804e+001
1.843643e+003;4.842579e+001
1.845572e+003;4.839778e+001
1.847500e+003;4.838063e+001
1.849429e+003;4.834877e+001
1.851357e+003;4.832566e+001
1.853286e+003;4.830543e+001
1.855214e+003;4.826905e+001
1.857143e+003;4.824544e+001
1.859071e+003;4.822496e+001
1.861000e+003;4.819223e+001
1.862928e+003;4.817307e+001
1.864857e+003;4.814671e+001
1.866785e+003;4.811056e+001
1.868714e+003;4.809118e+001
1.870642e+003;4.806477e+001
1.872571e+003;4.803342e+001
1.874499e+003;4.801699e+001
1.876428e+003;4.798630e+001
1.878356e+003;4.795448e+001
1.880285e+003;4.793523e+001
1.882213e+003;4.790121e+001
1.884142e+003;4.787375e+001
1.886070e+003;4.785762e+001
1.887999e+003;4.782154e+001
1.889927e+003;4.779368e+001
1.891856e+003;4.777182e+001
1.893784e+003;4.773388e+001
1.895713e+003;4.771008e+001
1.897641e+003;4.768600e+001
1.899570e+003;4.764773e+001
1.901498e+003;4.762510e+001
1.903427e+003;4.759313e+001
1.905355e+003;4.755069e+001
1.907284e+003;4.752663e+001
1.909212e+003;4.749341e+001
1.911141e+003;4.745428e+001
1.913069e+003;4.742905e+001
1.914998e+003;4.738586e+001
1.916926e+003;4.734357e+001
1.918855e+003;4.731514e+001
1.920783e+003;4.726748e+001
1.922712e+003;4.722467e+001
1.924640e+003;4.719213e+001
1.926569e+003;4.714025e+001
1.928497e+003;4.709721e+001
1.930426e+003;4.705485e+001
1.932354e+003;4.699485e+001
1.934283e+003;4.695320e+001
1.936211e+003;4.690950e+001
1.938140e+003;4.684568e+001
1.940068e+003;4.679831e+001
1.941997e+003;4.674254e+001
1.943925e+003;4.667614e+001
1.945854e+003;4.662776e+001
1.947782e+003;4.656578e+001
1.949711e+003;4.649784e+001
1.951639e+003;4.644740e+001
1.953568e+003;4.637548e+001
1.955496e+003;4.630482e+001
1.957425e+003;4.625076e+001
1.959353e+003;4.617782e+001
1.961282e+003;4.611134e+001
1.963210e+003;4.605186e+001
1.965139e+003;4.596972e+001
1.967067e+003;4.590389e+001
1.968996e+003;4.584187e+001
1.970924e+003;4.576072e+001
1.972853e+003;4.569843e+001
1.974781e+003;4.563443e+001
1.976710e+003;4.555490e+001
1.978638e+003;4.549577e+001
1.980567e+003;4.542559e+001
1.982495e+003;4.534960e+001
1.984424e+003;4.529927e+001
1.986352e+003;4.523286e+001
1.988281e+003;4.516200e+001
1.990209e+003;4.511233e+001
1.992138e+003;4.504506e+001
1.994066e+003;4.498524e+001
1.995995e+003;4.494054e+001
1.997923e+003;4.487495e+001
1.999852e+003;4.482365e+001
2.001780e+003;4.478354e+001
2.003709e+003;4.471942e+001
2.005637e+003;4.467508e+001
2.007566e+003;4.463633e+001
2.009494e+003;4.458089e+001
2.011423e+003;4.454539e+001
2.013351e+003;4.450378e+001
2.015280e+003;4.444765e+001
2.017208e+003;4.441681e+001
2.019137e+003;4.437460e+001
2.021065e+003;4.432394e+001
2.022994e+003;4.429501e+001
2.024922e+003;4.424895e+001
2.026851e+003;4.420033e+001
2.028779e+003;4.416779e+001
2.030708e+003;4.411195e+001
2.032636e+003;4.406378e+001
2.034565e+003;4.402810e+001
2.036493e+003;4.396804e+001
2.038422e+003;4.391530e+001
2.040350e+003;4.386741e+001
2.042279e+003;4.379892e+001
2.044207e+003;4.374570e+001
2.046135e+003;4.368909e+001
2.048064e+003;4.361426e+001
2.049992e+003;4.355732e+001
2.051921e+003;4.349229e+001
2.053850e+003;4.341100e+001
2.055778e+003;4.334961e+001
2.057707e+003;4.327944e+001
2.059635e+003;4.320504e+001
2.061563e+003;4.314818e+001
2.063492e+003;4.307731e+001
2.065420e+003;4.300969e+001
2.067349e+003;4.296386e+001
2.069278e+003;4.290462e+001
2.071206e+003;4.285526e+001
2.073135e+003;4.282492e+001
2.075063e+003;4.278666e+001
2.076991e+003;4.276328e+001
2.078920e+003;4.275374e+001
2.080848e+003;4.273603e+001
2.082777e+003;4.274143e+001
2.084706e+003;4.275772e+001
2.086634e+003;4.276576e+001
2.088563e+003;4.279287e+001
2.090491e+003;4.282865e+001
2.092419e+003;4.286429e+001
2.094348e+003;4.292340e+001
2.096276e+003;4.298548e+001
2.098205e+003;4.305075e+001
2.100134e+003;4.313714e+001
2.102062e+003;4.321821e+001
2.103990e+003;4.329760e+001
2.105919e+003;4.339151e+001
2.107847e+003;4.347339e+001
2.109776e+003;4.355265e+001
2.111704e+003;4.363398e+001
2.113633e+003;4.369704e+001
2.115562e+003;4.375825e+001
2.117490e+003;4.382253e+001
2.119418e+003;4.387025e+001
2.121347e+003;4.392305e+001
2.123275e+003;4.397987e+001
2.125204e+003;4.402808e+001
2.127132e+003;4.408456e+001
2.129061e+003;4.414170e+001
2.130990e+003;4.418788e+001
2.132918e+003;4.424469e+001
2.134846e+003;4.429443e+001
2.136775e+003;4.432930e+001
2.138703e+003;4.436926e+001
2.140632e+003;4.440152e+001
2.142560e+003;4.442348e+001
2.144489e+003;4.445308e+001
2.146417e+003;4.447083e+001
2.148346e+003;4.448277e+001
2.150274e+003;4.450086e+001
2.152203e+003;4.450409e+001
2.154131e+003;4.450190e+001
2.156060e+003;4.450860e+001
2.157988e+003;4.450190e+001
2.159917e+003;4.449448e+001
2.161845e+003;4.448899e+001
2.163774e+003;4.446940e+001
2.165702e+003;4.445440e+001
2.167631e+003;4.444348e+001
2.169559e+003;4.441832e+001
2.171488e+003;4.440048e+001
2.173416e+003;4.438367e+001
2.175345e+003;4.435463e+001
2.177273e+003;4.433234e+001
2.179202e+003;4.430806e+001
2.181130e+003;4.427497e+001
2.183059e+003;4.425521e+001
2.184987e+003;4.422854e+001
2.186916e+003;4.419168e+001
2.188844e+003;4.416702e+001
2.190773e+003;4.413684e+001
2.192701e+003;4.410016e+001
2.194630e+003;4.407551e+001
2.196558e+003;4.404045e+001
2.198487e+003;4.400596e+001
2.200415e+003;4.398166e+001
2.202344e+003;4.394285e+001
2.204272e+003;4.390634e+001
2.206201e+003;4.388224e+001
2.208129e+003;4.384232e+001
2.210058e+003;4.380920e+001
2.211986e+003;4.378133e+001
2.213915e+003;4.373770e+001
2.215843e+003;4.370705e+001
2.217772e+003;4.367881e+001
2.219700e+003;4.363249e+001
2.221629e+003;4.360536e+001
2.223557e+003;4.357363e+001
2.225486e+003;4.352713e+001
2.227414e+003;4.349992e+001
2.229343e+003;4.346156e+001
2.231271e+003;4.341715e+001
2.233200e+003;4.339655e+001
2.235128e+003;4.335370e+001
2.237057e+003;4.331021e+001
2.238985e+003;4.328596e+001
2.240914e+003;4.323916e+001
2.242842e+003;4.320162e+001
2.244771e+003;4.317926e+001
2.246699e+003;4.312991e+001
2.248628e+003;4.310006e+001
2.250556e+003;4.307435e+001
2.252485e+003;4.302089e+001
2.254413e+003;4.299414e+001
2.256342e+003;4.296635e+001
2.258270e+003;4.291610e+001
2.260199e+003;4.289464e+001
2.262127e+003;4.285764e+001
2.264056e+003;4.280925e+001
2.265984e+003;4.279401e+001
2.267913e+003;4.275378e+001
2.269841e+003;4.270816e+001
2.271770e+003;4.269249e+001
2.273698e+003;4.264703e+001
2.275627e+003;4.260920e+001
2.277555e+003;4.259093e+001
2.279484e+003;4.254031e+001
2.281412e+003;4.250933e+001
2.283341e+003;4.249067e+001
2.285269e+003;4.243543e+001
2.287198e+003;4.240844e+001
2.289126e+003;4.238350e+001
2.291055e+003;4.233023e+001
2.292983e+003;4.230961e+001
2.294912e+003;4.227857e+001
2.296840e+003;4.222606e+001
2.298769e+003;4.221026e+001
2.300697e+003;4.217073e+001
2.302626e+003;4.212048e+001
2.304554e+003;4.210572e+001
2.306483e+003;4.206212e+001
2.308411e+003;4.201839e+001
2.310340e+003;4.200462e+001
2.312268e+003;4.195282e+001
2.314197e+003;4.191483e+001
2.316125e+003;4.189869e+001
2.318054e+003;4.184583e+001
2.319982e+003;4.181466e+001
2.321911e+003;4.179456e+001
2.323839e+003;4.173792e+001
2.325768e+003;4.171338e+001
2.327696e+003;4.168474e+001
2.329625e+003;4.162801e+001
2.331553e+003;4.161161e+001
2.333482e+003;4.157924e+001
2.335410e+003;4.152234e+001
2.337339e+003;4.150836e+001
2.339267e+003;4.146907e+001
2.341196e+003;4.142094e+001
2.343124e+003;4.140802e+001
2.345053e+003;4.136150e+001
2.346981e+003;4.131773e+001
2.348910e+003;4.130453e+001
2.350838e+003;4.125082e+001
2.352767e+003;4.121370e+001
2.354695e+003;4.119852e+001
2.356624e+003;4.114463e+001
2.358552e+003;4.111510e+001
2.360481e+003;4.109374e+001
2.362409e+003;4.103364e+001
2.364338e+003;4.101156e+001
2.366266e+003;4.098518e+001
2.368195e+003;4.092654e+001
2.370123e+003;4.090791e+001
2.372052e+003;4.087528e+001
2.373980e+003;4.082048e+001
2.375908e+003;4.080637e+001
2.377837e+003;4.076321e+001
2.379766e+003;4.071422e+001
2.381694e+003;4.070412e+001
2.383623e+003;4.065553e+001
2.385551e+003;4.060936e+001
2.387479e+003;4.059695e+001
2.389408e+003;4.054301e+001
2.391336e+003;4.050727e+001
2.393265e+003;4.049014e+001
2.395194e+003;4.043216e+001
2.397122e+003;4.040390e+001
2.399051e+003;4.038314e+001
2.400979e+003;4.032146e+001
2.402907e+003;4.029939e+001
2.404836e+003;4.027229e+001
2.406764e+003;4.021540e+001
2.408693e+003;4.019846e+001
2.410622e+003;4.016103e+001
2.412550e+003;4.010483e+001
2.414479e+003;4.009385e+001
2.416407e+003;4.005059e+001
2.418335e+003;4.000060e+001
2.420264e+003;3.998865e+001
2.422192e+003;3.993889e+001
2.424121e+003;3.989594e+001
2.426050e+003;3.988142e+001
2.427978e+003;3.982460e+001
2.429906e+003;3.979303e+001
2.431835e+003;3.977612e+001
2.433763e+003;3.971471e+001
2.435692e+003;3.968707e+001
2.437620e+003;3.966455e+001
2.439549e+003;3.960339e+001
2.441478e+003;3.958477e+001
2.443406e+003;3.955378e+001
2.445334e+003;3.949462e+001
2.447263e+003;3.948035e+001
2.449191e+003;3.944200e+001
2.451120e+003;3.938697e+001
2.453048e+003;3.937534e+001
2.454977e+003;3.932690e+001
2.456906e+003;3.928115e+001
2.458834e+003;3.926934e+001
2.460762e+003;3.921404e+001
2.462691e+003;3.917522e+001
2.464619e+003;3.916395e+001
2.466548e+003;3.910406e+001
2.468476e+003;3.907212e+001
2.470405e+003;3.905263e+001
2.472333e+003;3.899129e+001
2.474262e+003;3.896777e+001
2.476190e+003;3.894201e+001
2.478119e+003;3.888004e+001
2.480047e+003;3.886499e+001
2.481976e+003;3.882958e+001
2.483904e+003;3.877047e+001
2.485833e+003;3.875869e+001
2.487761e+003;3.871655e+001
2.489690e+003;3.866233e+001
2.491618e+003;3.865391e+001
2.493547e+003;3.860215e+001
2.495475e+003;3.855585e+001
2.497404e+003;3.854646e+001
2.499332e+003;3.848862e+001
2.501261e+003;3.845036e+001
2.503189e+003;3.843938e+001
2.505118e+003;3.837658e+001
2.507046e+003;3.834802e+001
2.508975e+003;3.832925e+001
2.510903e+003;3.826414e+001
2.512832e+003;3.824397e+001
2.514760e+003;3.821944e+001
2.516689e+003;3.815370e+001
2.518617e+003;3.813905e+001
2.520546e+003;3.810561e+001
2.522474e+003;3.804684e+001
2.524403e+003;3.803617e+001
2.526331e+003;3.799134e+001
2.528260e+003;3.793689e+001
2.530188e+003;3.793061e+001
2.532117e+003;3.787663e+001
2.534045e+003;3.782871e+001
2.535974e+003;3.781974e+001
2.537902e+003;3.776062e+001
2.539831e+003;3.772143e+001
2.541759e+003;3.770956e+001
2.543688e+003;3.764428e+001
2.545616e+003;3.761538e+001
2.547545e+003;3.759778e+001
2.549473e+003;3.753258e+001
2.551402e+003;3.751149e+001
2.553330e+003;3.748523e+001
2.555259e+003;3.742009e+001
2.557187e+003;3.740726e+001
2.559116e+003;3.736989e+001
2.561044e+003;3.730909e+001
2.562973e+003;3.730062e+001
2.564901e+003;3.725782e+001
2.566830e+003;3.720261e+001
2.568758e+003;3.719358e+001
2.570687e+003;3.714133e+001
2.572615e+003;3.709681e+001
2.574544e+003;3.708524e+001
2.576472e+003;3.702621e+001
2.578401e+003;3.699009e+001
2.580329e+003;3.697734e+001
2.582258e+003;3.691330e+001
2.584186e+003;3.688511e+001
2.586115e+003;3.686366e+001
2.588043e+003;3.680159e+001
2.589972e+003;3.678201e+001
2.591900e+003;3.675224e+001
2.593829e+003;3.668871e+001
2.595757e+003;3.667518e+001
2.597686e+003;3.663646e+001
2.599614e+003;3.658131e+001
2.601543e+003;3.657048e+001
2.603471e+003;3.652326e+001
2.605400e+003;3.647405e+001
2.607328e+003;3.646332e+001
2.609257e+003;3.640468e+001
2.611185e+003;3.636459e+001
2.613114e+003;3.635468e+001
2.615042e+003;3.629501e+001
2.616971e+003;3.626062e+001
2.618899e+003;3.624260e+001
2.620828e+003;3.617874e+001
2.622756e+003;3.615664e+001
2.624685e+003;3.613024e+001
2.626613e+003;3.606604e+001
2.628542e+003;3.605039e+001
2.630470e+003;3.601667e+001
2.632399e+003;3.595346e+001
2.634327e+003;3.594328e+001
2.636256e+003;3.589879e+001
2.638184e+003;3.584361e+001
2.640113e+003;3.583772e+001
2.642041e+003;3.578483e+001
2.643970e+003;3.573472e+001
2.645898e+003;3.572936e+001
2.647827e+003;3.566924e+001
2.649755e+003;3.562873e+001
2.651684e+003;3.561740e+001
2.653612e+003;3.555384e+001
2.655541e+003;3.552538e+001
2.657469e+003;3.550863e+001
2.659398e+003;3.543846e+001
2.661326e+003;3.542072e+001
2.663255e+003;3.539808e+001
2.665183e+003;3.532883e+001
2.667112e+003;3.531301e+001
2.669040e+003;3.528072e+001
2.670969e+003;3.521720e+001
2.672897e+003;3.521040e+001
2.674826e+003;3.516552e+001
2.676754e+003;3.510724e+001
2.678683e+003;3.510232e+001
2.680611e+003;3.505123e+001
2.682540e+003;3.499983e+001
2.684468e+003;3.499483e+001
2.686397e+003;3.493595e+001
2.688325e+003;3.489631e+001
2.690254e+003;3.488591e+001
2.692182e+003;3.482096e+001
2.694111e+003;3.478951e+001
2.696039e+003;3.477608e+001
2.697968e+003;3.470953e+001
2.699896e+003;3.468635e+001
2.701825e+003;3.466151e+001
2.703753e+003;3.459853e+001
2.705682e+003;3.458398e+001
2.707610e+003;3.455097e+001
2.709539e+003;3.448851e+001
2.711467e+003;3.447915e+001
2.713396e+003;3.443701e+001
2.715324e+003;3.438272e+001
2.717253e+003;3.437218e+001
2.719181e+003;3.432314e+001
2.721110e+003;3.427819e+001
2.723038e+003;3.426742e+001
2.724967e+003;3.420831e+001
2.726895e+003;3.417257e+001
2.728823e+003;3.415763e+001
2.730752e+003;3.409704e+001
2.732681e+003;3.406856e+001
2.734609e+003;3.404743e+001
2.736538e+003;3.398592e+001
2.738466e+003;3.396870e+001
2.740395e+003;3.393641e+001
2.742323e+003;3.387585e+001
2.744251e+003;3.386426e+001
2.746180e+003;3.382685e+001
2.748109e+003;3.377015e+001
2.750037e+003;3.376049e+001
2.751966e+003;3.371291e+001
2.753894e+003;3.366675e+001
2.755823e+003;3.365728e+001
2.757751e+003;3.360066e+001
2.759679e+003;3.356027e+001
2.761608e+003;3.355070e+001
2.763537e+003;3.348700e+001
2.765465e+003;3.345617e+001
2.767394e+003;3.344052e+001
2.769322e+003;3.337785e+001
2.771250e+003;3.335756e+001
2.773179e+003;3.333418e+001
2.775107e+003;3.326559e+001
2.777036e+003;3.325331e+001
2.778965e+003;3.322232e+001
2.780893e+003;3.315894e+001
2.782822e+003;3.314989e+001
2.784750e+003;3.311040e+001
2.786678e+003;3.305431e+001
2.788607e+003;3.305014e+001
2.790535e+003;3.299752e+001
2.792464e+003;3.294741e+001
2.794393e+003;3.294436e+001
2.796321e+003;3.288823e+001
2.798250e+003;3.284413e+001
2.800178e+003;3.283771e+001
2.802106e+003;3.277671e+001
2.804035e+003;3.274552e+001
2.805963e+003;3.273111e+001
2.807892e+003;3.266591e+001
2.809821e+003;3.264345e+001
2.811749e+003;3.262558e+001
2.813677e+003;3.255913e+001
2.815606e+003;3.254137e+001
2.817534e+003;3.251187e+001
2.819463e+003;3.245320e+001
2.821391e+003;3.244194e+001
2.823320e+003;3.240231e+001
2.825249e+003;3.234504e+001
2.827177e+003;3.233904e+001
2.829105e+003;3.229255e+001
2.831034e+003;3.224416e+001
2.832962e+003;3.223322e+001
2.834891e+003;3.218124e+001
2.836819e+003;3.214320e+001
2.838748e+003;3.212996e+001
2.840677e+003;3.206923e+001
2.842605e+003;3.204076e+001
2.844533e+003;3.202239e+001
2.846462e+003;3.196259e+001
2.848390e+003;3.193868e+001
2.850319e+003;3.191211e+001
2.852247e+003;3.185452e+001
2.854176e+003;3.184071e+001
2.856104e+003;3.180123e+001
2.858033e+003;3.174585e+001
2.859961e+003;3.173729e+001
2.861890e+003;3.169424e+001
2.863818e+003;3.164379e+001
2.865747e+003;3.163483e+001
2.867675e+003;3.158331e+001
2.869604e+003;3.154618e+001
2.871532e+003;3.153537e+001
2.873461e+003;3.147652e+001
2.875389e+003;3.144530e+001
2.877318e+003;3.143314e+001
2.879246e+003;3.136980e+001
2.881175e+003;3.134606e+001
2.883103e+003;3.132321e+001
2.885032e+003;3.126222e+001
2.886960e+003;3.124880e+001
2.888889e+003;3.121823e+001
2.890817e+003;3.115469e+001
2.892746e+003;3.114938e+001
2.894674e+003;3.111316e+001
2.896603e+003;3.105573e+001
2.898531e+003;3.104684e+001
2.900460e+003;3.100103e+001
2.902388e+003;3.095222e+001
2.904317e+003;3.094880e+001
2.906245e+003;3.089156e+001
2.908174e+003;3.084921e+001
2.910102e+003;3.084447e+001
2.912031e+003;3.078705e+001
2.913959e+003;3.075001e+001
2.915888e+003;3.073814e+001
2.917816e+003;3.067670e+001
2.919745e+003;3.065375e+001
2.921673e+003;3.063245e+001
2.923602e+003;3.056546e+001
2.925530e+003;3.054791e+001
2.927459e+003;3.052678e+001
2.929387e+003;3.046640e+001
2.931316e+003;3.045149e+001
2.933244e+003;3.041539e+001
2.935173e+003;3.036285e+001
2.937101e+003;3.035287e+001
2.939030e+003;3.030865e+001
2.940958e+003;3.026103e+001
2.942887e+003;3.025661e+001
2.944815e+003;3.020758e+001
2.946744e+003;3.016632e+001
2.948672e+003;3.015161e+001
2.950601e+003;3.009996e+001
2.952529e+003;3.007146e+001
2.954458e+003;3.005243e+001
2.956386e+003;2.999124e+001
2.958315e+003;2.996981e+001
2.960243e+003;2.994651e+001
2.962172e+003;2.989101e+001
2.964100e+003;2.987376e+001
2.966029e+003;2.984122e+001
2.967957e+003;2.978982e+001
2.969886e+003;2.978092e+001
2.971814e+003;2.973618e+001
2.973743e+003;2.968929e+001
2.975671e+003;2.968285e+001
2.977600e+003;2.963554e+001
2.979528e+003;2.959388e+001
2.981457e+003;2.958357e+001
2.983385e+003;2.952800e+001
2.985314e+003;2.949967e+001
2.987242e+003;2.948641e+001
2.989171e+003;2.942493e+001
2.991099e+003;2.940334e+001
2.993028e+003;2.938881e+001
2.994956e+003;2.932531e+001
2.996885e+003;2.930857e+001
2.998813e+003;2.928168e+001
3.000742e+003;2.922578e+001
3.002670e+003;2.921870e+001
3.004599e+003;2.918303e+001
3.006527e+003;2.912489e+001
3.008456e+003;2.912493e+001
3.010384e+003;2.908478e+001
3.012313e+003;2.903342e+001
3.014241e+003;2.902725e+001
3.016170e+003;2.897914e+001
3.018098e+003;2.893810e+001
3.020027e+003;2.893341e+001
3.021955e+003;2.887511e+001
3.023884e+003;2.884296e+001
3.025812e+003;2.883630e+001
3.027741e+003;2.877834e+001
3.029669e+003;2.874968e+001
3.031598e+003;2.873483e+001
3.033526e+003;2.867806e+001
3.035455e+003;2.866128e+001
3.037383e+003;2.863441e+001
3.039312e+003;2.857747e+001
3.041240e+003;2.856750e+001
3.043169e+003;2.853936e+001
3.045097e+003;2.848461e+001
3.047026e+003;2.847211e+001
3.048954e+003;2.843401e+001
3.050883e+003;2.839325e+001
3.052811e+003;2.838090e+001
3.054740e+003;2.833307e+001
3.056668e+003;2.829624e+001
3.058597e+003;2.828618e+001
3.060525e+003;2.823468e+001
3.062454e+003;2.820592e+001
3.064382e+003;2.818686e+001
3.066311e+003;2.813688e+001
3.068239e+003;2.811771e+001
3.070167e+003;2.809183e+001
3.072096e+003;2.803648e+001
3.074025e+003;2.802549e+001
3.075953e+003;2.799593e+001
3.077882e+003;2.794734e+001
3.079810e+003;2.793497e+001
3.081739e+003;2.789659e+001
3.083667e+003;2.785445e+001
3.085595e+003;2.784669e+001
3.087524e+003;2.779482e+001
3.089453e+003;2.775699e+001
3.091381e+003;2.775090e+001
3.093310e+003;2.769940e+001
3.095238e+003;2.766666e+001
3.097167e+003;2.765648e+001
3.099095e+003;2.760128e+001
3.101023e+003;2.758175e+001
3.102952e+003;2.756366e+001
3.104881e+003;2.750394e+001
3.106809e+003;2.748916e+001
3.108738e+003;2.747017e+001
3.110666e+003;2.741274e+001
3.112594e+003;2.740273e+001
3.114523e+003;2.737275e+001
3.116451e+003;2.732183e+001
3.118380e+003;2.731447e+001
3.120309e+003;2.727590e+001
3.122237e+003;2.722562e+001
3.124166e+003;2.722397e+001
3.126094e+003;2.718170e+001
3.128022e+003;2.713993e+001
3.129951e+003;2.713139e+001
3.131879e+003;2.708504e+001
3.133808e+003;2.705174e+001
3.135737e+003;2.704191e+001
3.137665e+003;2.699004e+001
3.139594e+003;2.696561e+001
3.141522e+003;2.694904e+001
3.143450e+003;2.689866e+001
3.145379e+003;2.687644e+001
3.147307e+003;2.685358e+001
3.149236e+003;2.680539e+001
3.151165e+003;2.679331e+001
3.153093e+003;2.676138e+001
3.155021e+003;2.671545e+001
3.156950e+003;2.670301e+001
3.158878e+003;2.666844e+001
3.160807e+003;2.663031e+001
3.162735e+003;2.661770e+001
3.164664e+003;2.657220e+001
3.166593e+003;2.654319e+001
3.168521e+003;2.652876e+001
3.170449e+003;2.648078e+001
3.172378e+003;2.645594e+001
3.174306e+003;2.643968e+001
3.176235e+003;2.638955e+001
3.178163e+003;2.637315e+001
3.180092e+003;2.634721e+001
3.182021e+003;2.629935e+001
3.183949e+003;2.628905e+001
3.185877e+003;2.625900e+001
3.187806e+003;2.621044e+001
3.189734e+003;2.620465e+001
3.191663e+003;2.616722e+001
3.193591e+003;2.612697e+001
3.195520e+003;2.611970e+001
3.197448e+003;2.607587e+001
3.199377e+003;2.603961e+001
3.201305e+003;2.603509e+001
3.203234e+003;2.598481e+001
3.205162e+003;2.595566e+001
3.207091e+003;2.594731e+001
3.209019e+003;2.589697e+001
3.210948e+003;2.587323e+001
3.212876e+003;2.586058e+001
3.214805e+003;2.580705e+001
3.216733e+003;2.579154e+001
3.218662e+003;2.577227e+001
3.220590e+003;2.572203e+001
3.222519e+003;2.570820e+001
3.224447e+003;2.568455e+001
3.226376e+003;2.563695e+001
3.228304e+003;2.562700e+001
3.230233e+003;2.559448e+001
3.232161e+003;2.555527e+001
3.234090e+003;2.554538e+001
3.236018e+003;2.550737e+001
3.237947e+003;2.546932e+001
3.239875e+003;2.545980e+001
3.241804e+003;2.541955e+001
3.243732e+003;2.539191e+001
3.245661e+003;2.537585e+001
3.247589e+003;2.533263e+001
3.249518e+003;2.530855e+001
3.251446e+003;2.529001e+001
3.253375e+003;2.524568e+001
3.255303e+003;2.522808e+001
3.257232e+003;2.520257e+001
3.259160e+003;2.516471e+001
3.261089e+003;2.515070e+001
3.263017e+003;2.511874e+001
3.264946e+003;2.508130e+001
3.266874e+003;2.507145e+001
3.268803e+003;2.503314e+001
3.270731e+003;2.500178e+001
3.272660e+003;2.498816e+001
3.274588e+003;2.494631e+001
3.276517e+003;2.491961e+001
3.278445e+003;2.490657e+001
3.280374e+003;2.485985e+001
3.282302e+003;2.484207e+001
3.284231e+003;2.482451e+001
3.286159e+003;2.477701e+001
3.288088e+003;2.476111e+001
3.290016e+003;2.474235e+001
3.291945e+003;2.469622e+001
3.293873e+003;2.468654e+001
3.295802e+003;2.465708e+001
3.297730e+003;2.461368e+001
3.299659e+003;2.460579e+001
3.301587e+003;2.457478e+001
3.303516e+003;2.453506e+001
3.305444e+003;2.452967e+001
3.307373e+003;2.449224e+001
3.309301e+003;2.445831e+001
3.311230e+003;2.444774e+001
3.313158e+003;2.440675e+001
3.315087e+003;2.437785e+001
3.317015e+003;2.437038e+001
3.318944e+003;2.432606e+001
3.320872e+003;2.430194e+001
3.322801e+003;2.428777e+001
3.324729e+003;2.424797e+001
3.326658e+003;2.422790e+001
3.328586e+003;2.420881e+001
3.330515e+003;2.416538e+001
3.332443e+003;2.415066e+001
3.334372e+003;2.412730e+001
3.336300e+003;2.409058e+001
3.338229e+003;2.407345e+001
3.340157e+003;2.404595e+001
3.342086e+003;2.401377e+001
3.344014e+003;2.399949e+001
3.345943e+003;2.396269e+001
3.347871e+003;2.393590e+001
3.349800e+003;2.392096e+001
3.351728e+003;2.388536e+001
3.353657e+003;2.385999e+001
3.355585e+003;2.384238e+001
3.357514e+003;2.380596e+001
3.359442e+003;2.378987e+001
3.361371e+003;2.376391e+001
3.363299e+003;2.372614e+001
3.365228e+003;2.371372e+001
3.367156e+003;2.368981e+001
3.369085e+003;2.365179e+001
3.371013e+003;2.363951e+001
3.372942e+003;2.360851e+001
3.374870e+003;2.357841e+001
3.376799e+003;2.356478e+001
3.378727e+003;2.352725e+001
3.380656e+003;2.350010e+001
3.382584e+003;2.349371e+001
3.384513e+003;2.345315e+001
3.386441e+003;2.342753e+001
3.388370e+003;2.341537e+001
3.390298e+003;2.337930e+001
3.392227e+003;2.335818e+001
3.394155e+003;2.334107e+001
3.396083e+003;2.329833e+001
3.398012e+003;2.328662e+001
3.399941e+003;2.326821e+001
3.401869e+003;2.322612e+001
3.403798e+003;2.320902e+001
3.405726e+003;2.319011e+001
3.407655e+003;2.315346e+001
3.409583e+003;2.313989e+001
3.411511e+003;2.311033e+001
3.413440e+003;2.307910e+001
3.415369e+003;2.306842e+001
3.417297e+003;2.303930e+001
3.419226e+003;2.300536e+001
3.421154e+003;2.299232e+001
3.423083e+003;2.296382e+001
3.425011e+003;2.294081e+001
3.426939e+003;2.292116e+001
3.428868e+003;2.288833e+001
3.430797e+003;2.286781e+001
3.432725e+003;2.285201e+001
3.434654e+003;2.281879e+001
3.436582e+003;2.279731e+001
3.438510e+003;2.277352e+001
3.440439e+003;2.274799e+001
3.442367e+003;2.272938e+001
3.444296e+003;2.270117e+001
3.446225e+003;2.267264e+001
3.448153e+003;2.266123e+001
3.450082e+003;2.262972e+001
3.452010e+003;2.260225e+001
3.453938e+003;2.258548e+001
3.455867e+003;2.255962e+001
3.457795e+003;2.253931e+001
3.459724e+003;2.251947e+001
3.461653e+003;2.248150e+001
3.463581e+003;2.246730e+001
3.465510e+003;2.245135e+001
3.467438e+003;2.241621e+001
3.469366e+003;2.239544e+001
3.471295e+003;2.237713e+001
3.473223e+003;2.234745e+001
3.475152e+003;2.233472e+001
3.477081e+003;2.230514e+001
3.479009e+003;2.227506e+001
3.480938e+003;2.226638e+001
3.482866e+003;2.224203e+001
3.484794e+003;2.220736e+001
3.486723e+003;2.219558e+001
3.488651e+003;2.217007e+001
3.490580e+003;2.214695e+001
3.492509e+003;2.213081e+001
3.494437e+003;2.209934e+001
3.496365e+003;2.207703e+001
3.498294e+003;2.206673e+001
3.500222e+003;2.203362e+001
3.502151e+003;2.200906e+001
3.504079e+003;2.199286e+001
3.506008e+003;2.196889e+001
3.507937e+003;2.194657e+001
3.509865e+003;2.192375e+001
3.511793e+003;2.189515e+001
3.513722e+003;2.188214e+001
3.515650e+003;2.186018e+001
3.517579e+003;2.183127e+001
3.519507e+003;2.181005e+001
3.521436e+003;2.179163e+001
3.523365e+003;2.177136e+001
3.525293e+003;2.175074e+001
3.527221e+003;2.172117e+001
3.529150e+003;2.170374e+001
3.531078e+003;2.168649e+001
3.533007e+003;2.166136e+001
3.534935e+003;2.163819e+001
3.536864e+003;2.161819e+001
3.538792e+003;2.159585e+001
3.540721e+003;2.158012e+001
3.542649e+003;2.155173e+001
3.544578e+003;2.152719e+001
3.546506e+003;2.151326e+001
3.548435e+003;2.149214e+001
3.550363e+003;2.146486e+001
3.552292e+003;2.144809e+001
3.554220e+003;2.142534e+001
3.556149e+003;2.140733e+001
3.558077e+003;2.138746e+001
3.560006e+003;2.135865e+001
3.561934e+003;2.133734e+001
3.563863e+003;2.132625e+001
3.565791e+003;2.129858e+001
3.567720e+003;2.127545e+001
3.569648e+003;2.125749e+001
3.571577e+003;2.123706e+001
3.573505e+003;2.121819e+001
3.575434e+003;2.119744e+001
3.577362e+003;2.116963e+001
3.579291e+003;2.115643e+001
3.581219e+003;2.113870e+001
3.583148e+003;2.111307e+001
3.585076e+003;2.108860e+001
3.587005e+003;2.107000e+001
3.588933e+003;2.104978e+001
3.590862e+003;2.103182e+001
3.592790e+003;2.100714e+001
3.594719e+003;2.098885e+001
3.596647e+003;2.097284e+001
3.598576e+003;2.095381e+001
3.600504e+003;2.092893e+001
3.602433e+003;2.090954e+001
3.604361e+003;2.089336e+001
3.606290e+003;2.087479e+001
3.608218e+003;2.084727e+001
3.610147e+003;2.082849e+001
3.612075e+003;2.081196e+001
3.614004e+003;2.079456e+001
3.615932e+003;2.077309e+001
3.617861e+003;2.074857e+001
3.619789e+003;2.072677e+001
3.621718e+003;2.071602e+001
3.623646e+003;2.069470e+001
3.625575e+003;2.067105e+001
3.627503e+003;2.064966e+001
3.629432e+003;2.063228e+001
3.631360e+003;2.061397e+001
3.633289e+003;2.059625e+001
3.635217e+003;2.057295e+001
3.637146e+003;2.055930e+001
3.639074e+003;2.054511e+001
3.641003e+003;2.051981e+001
3.642931e+003;2.049709e+001
3.644860e+003;2.048389e+001
3.646788e+003;2.046255e+001
3.648717e+003;2.044082e+001
3.650645e+003;2.041835e+001
3.652574e+003;2.040364e+001
3.654502e+003;2.038924e+001
3.656431e+003;2.036923e+001
3.658359e+003;2.034355e+001
3.660288e+003;2.032872e+001
3.662216e+003;2.031247e+001
3.664145e+003;2.029649e+001
3.666073e+003;2.027475e+001
3.668002e+003;2.025052e+001
3.669930e+003;2.023546e+001
3.671859e+003;2.022496e+001
3.673787e+003;2.019708e+001
3.675716e+003;2.017722e+001
3.677644e+003;2.016278e+001
3.679573e+003;2.014664e+001
3.681501e+003;2.013010e+001
3.683430e+003;2.010587e+001
3.685358e+003;2.008380e+001
3.687287e+003;2.007729e+001
3.689215e+003;2.005568e+001
3.691144e+003;2.003236e+001
3.693072e+003;2.001882e+001
3.695001e+003;2.000208e+001
3.696929e+003;1.998523e+001
3.698858e+003;1.996974e+001
3.700786e+003;1.993970e+001
3.702715e+003;1.992721e+001
3.704643e+003;1.991587e+001
3.706572e+003;1.989087e+001
3.708500e+003;1.987100e+001
3.710429e+003;1.985595e+001
3.712357e+003;1.983591e+001
3.714286e+003;1.982813e+001
3.716214e+003;1.980408e+001
3.718143e+003;1.978086e+001
3.720071e+003;1.977516e+001
3.722000e+003;1.975593e+001
3.723928e+003;1.972824e+001
3.725857e+003;1.971686e+001
3.727785e+003;1.969654e+001
3.729714e+003;1.968374e+001
3.731642e+003;1.966965e+001
3.733571e+003;1.964073e+001
3.735499e+003;1.962574e+001
3.737427e+003;1.962208e+001
3.739356e+003;1.959473e+001
3.741285e+003;1.957886e+001
3.743213e+003;1.956089e+001
3.745142e+003;1.953922e+001
3.747070e+003;1.953042e+001
3.748999e+003;1.950694e+001
3.750927e+003;1.947739e+001
3.752855e+003;1.947885e+001
3.754784e+003;1.946312e+001
3.756713e+003;1.943568e+001
3.758641e+003;1.942476e+001
3.760570e+003;1.940852e+001
3.762498e+003;1.939222e+001
3.764427e+003;1.938342e+001
3.766355e+003;1.935202e+001
3.768283e+003;1.933869e+001
3.770212e+003;1.933549e+001
3.772141e+003;1.930749e+001
3.774069e+003;1.928671e+001
3.775998e+003;1.927802e+001
3.777926e+003;1.925469e+001
3.779854e+003;1.924663e+001
3.781783e+003;1.922663e+001
3.783711e+003;1.919919e+001
3.785640e+003;1.919755e+001
3.787569e+003;1.918567e+001
3.789497e+003;1.915667e+001
3.791426e+003;1.914750e+001
3.793354e+003;1.912601e+001
3.795282e+003;1.911107e+001
3.797211e+003;1.910475e+001
3.799139e+003;1.907427e+001
3.801068e+003;1.905640e+001
3.802997e+003;1.905717e+001
3.804925e+003;1.902604e+001
3.806854e+003;1.901048e+001
3.808782e+003;1.900336e+001
3.810710e+003;1.898164e+001
3.812639e+003;1.897496e+001
3.814567e+003;1.895482e+001
3.816496e+003;1.892165e+001
3.818425e+003;1.892735e+001
3.820353e+003;1.891150e+001
3.822281e+003;1.888140e+001
3.824210e+003;1.887618e+001
3.826138e+003;1.885785e+001
3.828067e+003;1.883979e+001
3.829995e+003;1.884121e+001
3.831924e+003;1.880622e+001
3.833853e+003;1.878780e+001
3.835781e+003;1.879268e+001
3.837709e+003;1.876208e+001
3.839638e+003;1.874267e+001
3.841566e+003;1.874176e+001
3.843495e+003;1.871320e+001
3.845423e+003;1.870921e+001
3.847352e+003;1.869822e+001
3.849281e+003;1.866252e+001
3.851209e+003;1.865934e+001
3.853137e+003;1.865091e+001
3.855066e+003;1.861636e+001
3.856994e+003;1.861533e+001
3.858923e+003;1.860184e+001
3.860851e+003;1.858024e+001
3.862780e+003;1.857877e+001
3.864708e+003;1.855210e+001
3.866637e+003;1.852876e+001
3.868565e+003;1.853850e+001
3.870494e+003;1.851280e+001
3.872422e+003;1.849236e+001
3.874351e+003;1.848733e+001
3.876279e+003;1.846541e+001
3.878208e+003;1.845786e+001
3.880136e+003;1.844882e+001
3.882065e+003;1.840974e+001
3.883993e+003;1.840995e+001
3.885922e+003;1.840530e+001
3.887850e+003;1.837352e+001
3.889779e+003;1.836527e+001
3.891707e+003;1.835019e+001
3.893636e+003;1.832981e+001
3.895564e+003;1.833798e+001
3.897493e+003;1.830606e+001
3.899421e+003;1.828286e+001
3.901350e+003;1.829316e+001
3.903278e+003;1.826504e+001
3.905207e+003;1.824206e+001
3.907135e+003;1.824442e+001
3.909064e+003;1.821465e+001
3.910992e+003;1.821360e+001
3.912921e+003;1.821000e+001
3.914849e+003;1.816485e+001
3.916778e+003;1.816360e+001
3.918706e+003;1.816962e+001
3.920635e+003;1.813024e+001
3.922563e+003;1.812721e+001
3.924492e+003;1.811528e+001
3.926420e+003;1.808783e+001
3.928349e+003;1.809615e+001
3.930277e+003;1.807469e+001
3.932206e+003;1.804189e+001
3.934134e+003;1.805967e+001
3.936063e+003;1.803523e+001
3.937991e+003;1.800699e+001
3.939920e+003;1.801151e+001
3.941848e+003;1.798729e+001
3.943777e+003;1.797461e+001
3.945705e+003;1.797711e+001
3.947634e+003;1.793573e+001
3.949562e+003;1.793116e+001
3.951491e+003;1.793794e+001
3.953419e+003;1.790398e+001
3.955348e+003;1.789479e+001
3.957276e+003;1.788785e+001
3.959205e+003;1.785988e+001
3.961133e+003;1.786989e+001
3.963062e+003;1.784843e+001
3.964990e+003;1.781586e+001
3.966919e+003;1.782817e+001
3.968847e+003;1.781184e+001
3.970776e+003;1.778504e+001
3.972704e+003;1.778839e+001
3.974633e+003;1.775879e+001
3.976561e+003;1.775270e+001
3.978490e+003;1.775620e+001
3.980418e+003;1.771190e+001
3.982347e+003;1.770502e+001
3.984275e+003;1.771962e+001
3.986204e+003;1.768140e+001
3.988132e+003;1.767803e+001
3.990061e+003;1.766989e+001
3.991989e+003;1.763680e+001
3.993918e+003;1.765009e+001
3.995846e+003;1.763539e+001
3.997775e+003;1.759297e+001
3.999703e+003;1.761512e+001
