3.991989e+002;5.122597e+001
4.011274e+002;5.133214e+001
4.030559e+002;5.161708e+001
4.049844e+002;5.172070e+001
4.069129e+002;5.120819e+001
4.088414e+002;5.119456e+001
4.107699e+002;5.142782e+001
4.126984e+002;5.121152e+001
4.146269e+002;5.103706e+001
4.165554e+002;5.119143e+001
4.184839e+002;5.110363e+001
4.204124e+002;5.078462e+001
4.223409e+002;5.066042e+001
4.242694e+002;5.048004e+001
4.261979e+002;5.025456e+001
4.281264e+002;5.014895e+001
4.300549e+002;4.995638e+001
4.319834e+002;4.956185e+001
4.339119e+002;4.932236e+001
4.358404e+002;4.911168e+001
4.377689e+002;4.899392e+001
4.396974e+002;4.876765e+001
4.416259e+002;4.836172e+001
4.435544e+002;4.817167e+001
4.454829e+002;4.785802e+001
4.474114e+002;4.746732e+001
4.493399e+002;4.720329e+001
4.512684e+002;4.690938e+001
4.531969e+002;4.671234e+001
4.551254e+002;4.658385e+001
4.570539e+002;4.650985e+001
4.589824e+002;4.646430e+001
4.609109e+002;4.642008e+001
4.628394e+002;4.655717e+001
4.647679e+002;4.686501e+001
4.666964e+002;4.710927e+001
4.686248e+002;4.736565e+001
4.705533e+002;4.776649e+001
4.724818e+002;4.829501e+001
4.744103e+002;4.875875e+001
4.763388e+002;4.916694e+001
4.782673e+002;4.955333e+001
4.801958e+002;4.980841e+001
4.821243e+002;4.984910e+001
4.840528e+002;4.991378e+001
4.859813e+002;4.995486e+001
4.879098e+002;5.001765e+001
4.898383e+002;5.014808e+001
4.917668e+002;5.017534e+001
4.936953e+002;5.009270e+001
4.956238e+002;5.010725e+001
4.975523e+002;5.008303e+001
4.994808e+002;4.998420e+001
5.014093e+002;4.985231e+001
5.033378e+002;4.972404e+001
5.052663e+002;4.956076e+001
5.071948e+002;4.931566e+001
5.091233e+002;4.898260e+001
5.110518e+002;4.854503e+001
5.129803e+002;4.815599e+001
5.149088e+002;4.818643e+001
5.168373e+002;4.864313e+001
5.187657e+002;4.909044e+001
5.206943e+002;4.925085e+001
5.226227e+002;4.926490e+001
5.245513e+002;4.925898e+001
5.264797e+002;4.928477e+001
5.284083e+002;4.928204e+001
5.303367e+002;4.924724e+001
5.322653e+002;4.915033e+001
5.341937e+002;4.906009e+001
5.361223e+002;4.898761e+001
5.380507e+002;4.890008e+001
5.399792e+002;4.876200e+001
5.419077e+002;4.861128e+001
5.438362e+002;4.844450e+001
5.457647e+002;4.827255e+001
5.476932e+002;4.809248e+001
5.496217e+002;4.792212e+001
5.515502e+002;4.777905e+001
5.534787e+002;4.760585e+001
5.554072e+002;4.740411e+001
5.573357e+002;4.721110e+001
5.592642e+002;4.697969e+001
5.611927e+002;4.677854e+001
5.631212e+002;4.657175e+001
5.650497e+002;4.639365e+001
5.669782e+002;4.627645e+001
5.689067e+002;4.637833e+001
5.708352e+002;4.673173e+001
5.727637e+002;4.693791e+001
5.746922e+002;4.696752e+001
5.766207e+002;4.692813e+001
5.785492e+002;4.677930e+001
5.804777e+002;4.654171e+001
5.824062e+002;4.625838e+001
5.843347e+002;4.588001e+001
5.862632e+002;4.538195e+001
5.881917e+002;4.478488e+001
5.901202e+002;4.405230e+001
5.920486e+002;4.314992e+001
5.939772e+002;4.209341e+001
5.959056e+002;4.088067e+001
5.978342e+002;3.946140e+001
5.997626e+002;3.768105e+001
6.016912e+002;3.567936e+001
6.036196e+002;3.409219e+001
6.055482e+002;3.293496e+001
6.074766e+002;3.185827e+001
6.094052e+002;3.099305e+001
6.113336e+002;3.091428e+001
6.132621e+002;3.143331e+001
6.151906e+002;3.177486e+001
6.171191e+002;3.183826e+001
6.190476e+002;3.190403e+001
6.209761e+002;3.217075e+001
6.229046e+002;3.335946e+001
6.248331e+002;3.602341e+001
6.267616e+002;3.953367e+001
6.286901e+002;4.302810e+001
6.306186e+002;4.544330e+001
6.325471e+002;4.653328e+001
6.344756e+002;4.687725e+001
6.364041e+002;4.700945e+001
6.383326e+002;4.707093e+001
6.402611e+002;4.712807e+001
6.421896e+002;4.722496e+001
6.441181e+002;4.733148e+001
6.460466e+002;4.743144e+001
6.479751e+002;4.752217e+001
6.499036e+002;4.760140e+001
6.518321e+002;4.768323e+001
6.537606e+002;4.776262e+001
6.556891e+002;4.784163e+001
6.576176e+002;4.793362e+001
6.595461e+002;4.804438e+001
6.614745e+002;4.815596e+001
6.634031e+002;4.827054e+001
6.653315e+002;4.839288e+001
6.672601e+002;4.850947e+001
6.691885e+002;4.863399e+001
6.711171e+002;4.874885e+001
6.730455e+002;4.886279e+001
6.749741e+002;4.898994e+001
6.769025e+002;4.911899e+001
6.788311e+002;4.922969e+001
6.807595e+002;4.931821e+001
6.826880e+002;4.939364e+001
6.846165e+002;4.947392e+001
6.865450e+002;4.956109e+001
6.884735e+002;4.966475e+001
6.904020e+002;4.981343e+001
6.923305e+002;4.997480e+001
6.942590e+002;5.013616e+001
6.961875e+002;5.033966e+001
6.981160e+002;5.055687e+001
7.000445e+002;5.071052e+001
7.019730e+002;5.078675e+001
7.039015e+002;5.078773e+001
7.058300e+002;5.071722e+001
7.077585e+002;5.057769e+001
7.096870e+002;5.032932e+001
7.116155e+002;4.994689e+001
7.135440e+002;4.943004e+001
7.154725e+002;4.888286e+001
7.174010e+002;4.843630e+001
7.193295e+002;4.809646e+001
7.212580e+002;4.778554e+001
7.231865e+002;4.749507e+001
7.251150e+002;4.721740e+001
7.270435e+002;4.694871e+001
7.289720e+002;4.670120e+001
7.309005e+002;4.645779e+001
7.328290e+002;4.620631e+001
7.347574e+002;4.597727e+001
7.366860e+002;4.578190e+001
7.386144e+002;4.567748e+001
7.405430e+002;4.580422e+001
7.424714e+002;4.615174e+001
7.444000e+002;4.651999e+001
7.463284e+002;4.680027e+001
7.482570e+002;4.699547e+001
7.501854e+002;4.715368e+001
7.521140e+002;4.729449e+001
7.540424e+002;4.741718e+001
7.559709e+002;4.752355e+001
7.578994e+002;4.761832e+001
7.598279e+002;4.767961e+001
7.617564e+002;4.772591e+001
7.636849e+002;4.777315e+001
7.656134e+002;4.780803e+001
7.675419e+002;4.783766e+001
7.694704e+002;4.785492e+001
7.713989e+002;4.784924e+001
7.733274e+002;4.782005e+001
7.752559e+002;4.776754e+001
7.771844e+002;4.772243e+001
7.791129e+002;4.769105e+001
7.810414e+002;4.766595e+001
7.829699e+002;4.763760e+001
7.848984e+002;4.760827e+001
7.868269e+002;4.757584e+001
7.887554e+002;4.754409e+001
7.906839e+002;4.753213e+001
7.926124e+002;4.756581e+001
7.945409e+002;4.766489e+001
7.964694e+002;4.786475e+001
7.983979e+002;4.815306e+001
8.003264e+002;4.828945e+001
8.022549e+002;4.816886e+001
8.041833e+002;4.795613e+001
8.061119e+002;4.773841e+001
8.080403e+002;4.757087e+001
8.099689e+002;4.744819e+001
8.118973e+002;4.734399e+001
8.138259e+002;4.722944e+001
8.157543e+002;4.714212e+001
8.176829e+002;4.713609e+001
8.196113e+002;4.721395e+001
8.215399e+002;4.734680e+001
8.234683e+002;4.752739e+001
8.253969e+002;4.774254e+001
8.273253e+002;4.799271e+001
8.292538e+002;4.828642e+001
8.311823e+002;4.857842e+001
8.331108e+002;4.882515e+001
8.350393e+002;4.899908e+001
8.369678e+002;4.909692e+001
8.388963e+002;4.912685e+001
8.408248e+002;4.910439e+001
8.427533e+002;4.904026e+001
8.446818e+002;4.896624e+001
8.466103e+002;4.892458e+001
8.485388e+002;4.889225e+001
8.504673e+002;4.884149e+001
8.523958e+002;4.876567e+001
8.543243e+002;4.866917e+001
8.562528e+002;4.855154e+001
8.581813e+002;4.841230e+001
8.601098e+002;4.824142e+001
8.620383e+002;4.805921e+001
8.639668e+002;4.790059e+001
8.658953e+002;4.778356e+001
8.678238e+002;4.768948e+001
8.697523e+002;4.760145e+001
8.716808e+002;4.751907e+001
8.736093e+002;4.744929e+001
8.755378e+002;4.737191e+001
8.774662e+002;4.729413e+001
8.793948e+002;4.722385e+001
8.813232e+002;4.716525e+001
8.832518e+002;4.712761e+001
8.851802e+002;4.710375e+001
8.871088e+002;4.709221e+001
8.890372e+002;4.709122e+001
8.909658e+002;4.709001e+001
8.928942e+002;4.709623e+001
8.948227e+002;4.711288e+001
8.967512e+002;4.714688e+001
8.986797e+002;4.719778e+001
9.006082e+002;4.726468e+001
9.025367e+002;4.732724e+001
9.044652e+002;4.738544e+001
9.063937e+002;4.746332e+001
9.083222e+002;4.756516e+001
9.102507e+002;4.769598e+001
9.121792e+002;4.786896e+001
9.141077e+002;4.803909e+001
9.160362e+002;4.818921e+001
9.179647e+002;4.831764e+001
9.198932e+002;4.841876e+001
9.218217e+002;4.850313e+001
9.237502e+002;4.859624e+001
9.256786e+002;4.868203e+001
9.276072e+002;4.875261e+001
9.295356e+002;4.881370e+001
9.314642e+002;4.886291e+001
9.333926e+002;4.890572e+001
9.353212e+002;4.894569e+001
9.372496e+002;4.898104e+001
9.391782e+002;4.901156e+001
9.411066e+002;4.901970e+001
9.430352e+002;4.899415e+001
9.449636e+002;4.894668e+001
9.468922e+002;4.889418e+001
9.488206e+002;4.883510e+001
9.507491e+002;4.877454e+001
9.526776e+002;4.871989e+001
9.546061e+002;4.866481e+001
9.565346e+002;4.860420e+001
9.584631e+002;4.855458e+001
9.603916e+002;4.851678e+001
9.623201e+002;4.849438e+001
9.642486e+002;4.847697e+001
9.661771e+002;4.846781e+001
9.681056e+002;4.846241e+001
9.700341e+002;4.845236e+001
9.719626e+002;4.845202e+001
9.738911e+002;4.846970e+001
9.758196e+002;4.850010e+001
9.777481e+002;4.853303e+001
9.796766e+002;4.856546e+001
9.816051e+002;4.859616e+001
9.835336e+002;4.862291e+001
9.854621e+002;4.865005e+001
9.873906e+002;4.868217e+001
9.893191e+002;4.871375e+001
9.912476e+002;4.872315e+001
9.931761e+002;4.870676e+001
9.951046e+002;4.866790e+001
9.970331e+002;4.860829e+001
9.989615e+002;4.853338e+001
1.000890e+003;4.844548e+001
1.002819e+003;4.833130e+001
1.004747e+003;4.818903e+001
1.006676e+003;4.801692e+001
1.008604e+003;4.781162e+001
1.010533e+003;4.758362e+001
1.012461e+003;4.733776e+001
1.014390e+003;4.707080e+001
1.016318e+003;4.679153e+001
1.018247e+003;4.648424e+001
1.020175e+003;4.614339e+001
1.022104e+003;4.578545e+001
1.024032e+003;4.541857e+001
1.025961e+003;4.504284e+001
1.027889e+003;4.466658e+001
1.029818e+003;4.428717e+001
1.031746e+003;4.389879e+001
1.033675e+003;4.351299e+001
1.035603e+003;4.313549e+001
1.037531e+003;4.276711e+001
1.039460e+003;4.241103e+001
1.041389e+003;4.206030e+001
1.043317e+003;4.171960e+001
1.045245e+003;4.139204e+001
1.047174e+003;4.107537e+001
1.049103e+003;4.077644e+001
1.051031e+003;4.050364e+001
1.052959e+003;4.025028e+001
1.054888e+003;4.001875e+001
1.056817e+003;3.980539e+001
1.058745e+003;3.960440e+001
1.060673e+003;3.942694e+001
1.062602e+003;3.927501e+001
1.064531e+003;3.914483e+001
1.066459e+003;3.904362e+001
1.068387e+003;3.895507e+001
1.070316e+003;3.887500e+001
1.072245e+003;3.881273e+001
1.074173e+003;3.876262e+001
1.076101e+003;3.872988e+001
1.078030e+003;3.871676e+001
1.079958e+003;3.870779e+001
1.081887e+003;3.870536e+001
1.083815e+003;3.870971e+001
1.085744e+003;3.871179e+001
1.087672e+003;3.871944e+001
1.089601e+003;3.874226e+001
1.091529e+003;3.877800e+001
1.093458e+003;3.883714e+001
1.095386e+003;3.893042e+001
1.097315e+003;3.906939e+001
1.099243e+003;3.928035e+001
1.101172e+003;3.957740e+001
1.103100e+003;3.996815e+001
1.105029e+003;4.046256e+001
1.106957e+003;4.104599e+001
1.108886e+003;4.169605e+001
1.110814e+003;4.240335e+001
1.112743e+003;4.314664e+001
1.114671e+003;4.391285e+001
1.116600e+003;4.469382e+001
1.118528e+003;4.546545e+001
1.120457e+003;4.620936e+001
1.122385e+003;4.691368e+001
1.124314e+003;4.756873e+001
1.126242e+003;4.817276e+001
1.128171e+003;4.871368e+001
1.130099e+003;4.917233e+001
1.132028e+003;4.954153e+001
1.133956e+003;4.982212e+001
1.135885e+003;5.002536e+001
1.137813e+003;5.018066e+001
1.139742e+003;5.030478e+001
1.141670e+003;5.040852e+001
1.143599e+003;5.050257e+001
1.145527e+003;5.057649e+001
1.147456e+003;5.063188e+001
1.149384e+003;5.067690e+001
1.151313e+003;5.071595e+001
1.153241e+003;5.075161e+001
1.155170e+003;5.079175e+001
1.157098e+003;5.082664e+001
1.159027e+003;5.085649e+001
1.160955e+003;5.088436e+001
1.162884e+003;5.090515e+001
1.164812e+003;5.093028e+001
1.166741e+003;5.096225e+001
1.168669e+003;5.099594e+001
1.170598e+003;5.103319e+001
1.172526e+003;5.106906e+001
1.174455e+003;5.109444e+001
1.176383e+003;5.112442e+001
1.178312e+003;5.115511e+001
1.180240e+003;5.119587e+001
1.182169e+003;5.125291e+001
1.184097e+003;5.129079e+001
1.186026e+003;5.133011e+001
1.187954e+003;5.137042e+001
1.189883e+003;5.141214e+001
1.191811e+003;5.145743e+001
1.193740e+003;5.151512e+001
1.195668e+003;5.156805e+001
1.197597e+003;5.161607e+001
1.199525e+003;5.166021e+001
1.201454e+003;5.169893e+001
1.203382e+003;5.174040e+001
1.205311e+003;5.178460e+001
1.207239e+003;5.182658e+001
1.209168e+003;5.186909e+001
1.211096e+003;5.190155e+001
1.213025e+003;5.192234e+001
1.214953e+003;5.194098e+001
1.216882e+003;5.195922e+001
1.218810e+003;5.197488e+001
1.220739e+003;5.199009e+001
1.222667e+003;5.199718e+001
1.224596e+003;5.199709e+001
1.226524e+003;5.199845e+001
1.228453e+003;5.200179e+001
1.230381e+003;5.200878e+001
1.232310e+003;5.202212e+001
1.234238e+003;5.202916e+001
1.236167e+003;5.202767e+001
1.238095e+003;5.202136e+001
1.240024e+003;5.200851e+001
1.241952e+003;5.199549e+001
1.243881e+003;5.198693e+001
1.245809e+003;5.197271e+001
1.247738e+003;5.195338e+001
1.249666e+003;5.193039e+001
1.251595e+003;5.189988e+001
1.253523e+003;5.187046e+001
1.255452e+003;5.184621e+001
1.257380e+003;5.182183e+001
1.259309e+003;5.180113e+001
1.261237e+003;5.178054e+001
1.263166e+003;5.175534e+001
1.265094e+003;5.173379e+001
1.267023e+003;5.171821e+001
1.268951e+003;5.170424e+001
1.270880e+003;5.169287e+001
1.272808e+003;5.167390e+001
1.274737e+003;5.164336e+001
1.276665e+003;5.160908e+001
1.278594e+003;5.157293e+001
1.280522e+003;5.153651e+001
1.282451e+003;5.150488e+001
1.284379e+003;5.147101e+001
1.286308e+003;5.143359e+001
1.288236e+003;5.139705e+001
1.290165e+003;5.135928e+001
1.292093e+003;5.132642e+001
1.294022e+003;5.130112e+001
1.295950e+003;5.127851e+001
1.297879e+003;5.125941e+001
1.299807e+003;5.124269e+001
1.301736e+003;5.122456e+001
1.303664e+003;5.121057e+001
1.305593e+003;5.120417e+001
1.307521e+003;5.120222e+001
1.309450e+003;5.120504e+001
1.311378e+003;5.120786e+001
1.313307e+003;5.120852e+001
1.315235e+003;5.121220e+001
1.317164e+003;5.121824e+001
1.319092e+003;5.122841e+001
1.321021e+003;5.124369e+001
1.322949e+003;5.125836e+001
1.324878e+003;5.127016e+001
1.326806e+003;5.127896e+001
1.328735e+003;5.128456e+001
1.330663e+003;5.129027e+001
1.332592e+003;5.129962e+001
1.334520e+003;5.130702e+001
1.336449e+003;5.130767e+001
1.338377e+003;5.130296e+001
1.340306e+003;5.129203e+001
1.342234e+003;5.127937e+001
1.344163e+003;5.126770e+001
1.346091e+003;5.125349e+001
1.348020e+003;5.123534e+001
1.349948e+003;5.121303e+001
1.351877e+003;5.118297e+001
1.353805e+003;5.115126e+001
1.355734e+003;5.112340e+001
1.357662e+003;5.109575e+001
1.359591e+003;5.106904e+001
1.361519e+003;5.104305e+001
1.363448e+003;5.101330e+001
1.365376e+003;5.098086e+001
1.367305e+003;5.095347e+001
1.369233e+003;5.092837e+001
1.371161e+003;5.090797e+001
1.373090e+003;5.089061e+001
1.375019e+003;5.086729e+001
1.376947e+003;5.084367e+001
1.378875e+003;5.082290e+001
1.380804e+003;5.080386e+001
1.382733e+003;5.079021e+001
1.384661e+003;5.077921e+001
1.386589e+003;5.076631e+001
1.388518e+003;5.075119e+001
1.390447e+003;5.073199e+001
1.392375e+003;5.070937e+001
1.394303e+003;5.069196e+001
1.396232e+003;5.068446e+001
1.398161e+003;5.067353e+001
1.400089e+003;5.065946e+001
1.402017e+003;5.063804e+001
1.403946e+003;5.061287e+001
1.405875e+003;5.059232e+001
1.407803e+003;5.057104e+001
1.409731e+003;5.054791e+001
1.411660e+003;5.052462e+001
1.413589e+003;5.049031e+001
1.415517e+003;5.045240e+001
1.417445e+003;5.040531e+001
1.419374e+003;5.035157e+001
1.421302e+003;5.032457e+001
1.423231e+003;5.029185e+001
1.425159e+003;5.023961e+001
1.427088e+003;5.018629e+001
1.429016e+003;5.012838e+001
1.430945e+003;5.006669e+001
1.432873e+003;5.001375e+001
1.434802e+003;4.995795e+001
1.436730e+003;4.990105e+001
1.438659e+003;4.985339e+001
1.440587e+003;4.980151e+001
1.442516e+003;4.975237e+001
1.444444e+003;4.971999e+001
1.446373e+003;4.969510e+001
1.448301e+003;4.967873e+001
1.450230e+003;4.967476e+001
1.452158e+003;4.967212e+001
1.454087e+003;4.968280e+001
1.456015e+003;4.971307e+001
1.457944e+003;4.973880e+001
1.459872e+003;4.977647e+001
1.461801e+003;4.982307e+001
1.463729e+003;4.986100e+001
1.465658e+003;4.990077e+001
1.467586e+003;4.993722e+001
1.469515e+003;4.996842e+001
1.471443e+003;5.000131e+001
1.473372e+003;5.004543e+001
1.475300e+003;5.008055e+001
1.477229e+003;5.011113e+001
1.479157e+003;5.013474e+001
1.481086e+003;5.015389e+001
1.483014e+003;5.017754e+001
1.484943e+003;5.019820e+001
1.486871e+003;5.021297e+001
1.488800e+003;5.022667e+001
1.490728e+003;5.022643e+001
1.492657e+003;5.023124e+001
1.494585e+003;5.023085e+001
1.496514e+003;5.022201e+001
1.498442e+003;5.023131e+001
1.500371e+003;5.023981e+001
1.502299e+003;5.023127e+001
1.504228e+003;5.022026e+001
1.506156e+003;5.019875e+001
1.508085e+003;5.018241e+001
1.510013e+003;5.018628e+001
1.511942e+003;5.017821e+001
1.513870e+003;5.015990e+001
1.515799e+003;5.014643e+001
1.517727e+003;5.012815e+001
1.519656e+003;5.009016e+001
1.521584e+003;5.007130e+001
1.523513e+003;5.007225e+001
1.525441e+003;5.005703e+001
1.527370e+003;5.003786e+001
1.529298e+003;5.001129e+001
1.531227e+003;4.998752e+001
1.533155e+003;4.997403e+001
1.535084e+003;4.994949e+001
1.537012e+003;4.993089e+001
1.538941e+003;4.990697e+001
1.540869e+003;4.986945e+001
1.542798e+003;4.985282e+001
1.544726e+003;4.983176e+001
1.546655e+003;4.980717e+001
1.548583e+003;4.979145e+001
1.550512e+003;4.977185e+001
1.552440e+003;4.973158e+001
1.554369e+003;4.970100e+001
1.556297e+003;4.968307e+001
1.558226e+003;4.965279e+001
1.560154e+003;4.962541e+001
1.562083e+003;4.961410e+001
1.564011e+003;4.959086e+001
1.565940e+003;4.957143e+001
1.567868e+003;4.954335e+001
1.569797e+003;4.951567e+001
1.571725e+003;4.949793e+001
1.573654e+003;4.946424e+001
1.575582e+003;4.941783e+001
1.577511e+003;4.940784e+001
1.579439e+003;4.939224e+001
1.581368e+003;4.936878e+001
1.583296e+003;4.934906e+001
1.585225e+003;4.931879e+001
1.587153e+003;4.929932e+001
1.589082e+003;4.927899e+001
1.591010e+003;4.924622e+001
1.592939e+003;4.922359e+001
1.594867e+003;4.919866e+001
1.596796e+003;4.917017e+001
1.598724e+003;4.915337e+001
1.600653e+003;4.912767e+001
1.602581e+003;4.909779e+001
1.604510e+003;4.907858e+001
1.606438e+003;4.904896e+001
1.608367e+003;4.902098e+001
1.610295e+003;4.900552e+001
1.612224e+003;4.897966e+001
1.614152e+003;4.895276e+001
1.616081e+003;4.892521e+001
1.618009e+003;4.889362e+001
1.619938e+003;4.887429e+001
1.621866e+003;4.885347e+001
1.623795e+003;4.882337e+001
1.625723e+003;4.880460e+001
1.627652e+003;4.878353e+001
1.629580e+003;4.875216e+001
1.631509e+003;4.873186e+001
1.633437e+003;4.871004e+001
1.635366e+003;4.868334e+001
1.637294e+003;4.866415e+001
1.639223e+003;4.863858e+001
1.641151e+003;4.860583e+001
1.643080e+003;4.858628e+001
1.645008e+003;4.855848e+001
1.646937e+003;4.852774e+001
1.648865e+003;4.851185e+001
1.650794e+003;4.847466e+001
1.652722e+003;4.842343e+001
1.654651e+003;4.841951e+001
1.656579e+003;4.840364e+001
1.658508e+003;4.837999e+001
1.660436e+003;4.836180e+001
1.662365e+003;4.833179e+001
1.664293e+003;4.830796e+001
1.666222e+003;4.828234e+001
1.668150e+003;4.824018e+001
1.670079e+003;4.821668e+001
1.672007e+003;4.820056e+001
1.673936e+003;4.816312e+001
1.675864e+003;4.814272e+001
1.677793e+003;4.812592e+001
1.679721e+003;4.809396e+001
1.681650e+003;4.806876e+001
1.683578e+003;4.804131e+001
1.685507e+003;4.801919e+001
1.687435e+003;4.799693e+001
1.689364e+003;4.796301e+001
1.691292e+003;4.792961e+001
1.693221e+003;4.790788e+001
1.695149e+003;4.787566e+001
1.697078e+003;4.783963e+001
1.699006e+003;4.779485e+001
1.700935e+003;4.775923e+001
1.702863e+003;4.774228e+001
1.704792e+003;4.771227e+001
1.706720e+003;4.766896e+001
1.708649e+003;4.763872e+001
1.710577e+003;4.760611e+001
1.712505e+003;4.756567e+001
1.714434e+003;4.753825e+001
1.716363e+003;4.750198e+001
1.718291e+003;4.745844e+001
1.720219e+003;4.743681e+001
1.722148e+003;4.741013e+001
1.724077e+003;4.738189e+001
1.726005e+003;4.736581e+001
1.727933e+003;4.733686e+001
1.729862e+003;4.730954e+001
1.731791e+003;4.728986e+001
1.733719e+003;4.726184e+001
1.735647e+003;4.724874e+001
1.737576e+003;4.723656e+001
1.739505e+003;4.720717e+001
1.741433e+003;4.718273e+001
1.743361e+003;4.715833e+001
1.745290e+003;4.712547e+001
1.747219e+003;4.710475e+001
1.749147e+003;4.707796e+001
1.751075e+003;4.704347e+001
1.753004e+003;4.702330e+001
1.754932e+003;4.699265e+001
1.756861e+003;4.695438e+001
1.758789e+003;4.693374e+001
1.760718e+003;4.690520e+001
1.762646e+003;4.687258e+001
1.764575e+003;4.684738e+001
1.766503e+003;4.680715e+001
1.768432e+003;4.677051e+001
1.770360e+003;4.674879e+001
1.772289e+003;4.671657e+001
1.774217e+003;4.668968e+001
1.776146e+003;4.666292e+001
1.778074e+003;4.662429e+001
1.780003e+003;4.659479e+001
1.781931e+003;4.656690e+001
1.783860e+003;4.652619e+001
1.785788e+003;4.650276e+001
1.787717e+003;4.647539e+001
1.789645e+003;4.643502e+001
1.791574e+003;4.640495e+001
1.793502e+003;4.637343e+001
1.795431e+003;4.633912e+001
1.797359e+003;4.631717e+001
1.799288e+003;4.628358e+001
1.801216e+003;4.624876e+001
1.803145e+003;4.622383e+001
1.805073e+003;4.618602e+001
1.807002e+003;4.615088e+001
1.808930e+003;4.612717e+001
1.810859e+003;4.608968e+001
1.812787e+003;4.605916e+001
1.814716e+003;4.603189e+001
1.816644e+003;4.599055e+001
1.818573e+003;4.595978e+001
1.820501e+003;4.593225e+001
1.822430e+003;4.589237e+001
1.824358e+003;4.586633e+001
1.826287e+003;4.583490e+001
1.828215e+003;4.579306e+001
1.830144e+003;4.576529e+001
1.832072e+003;4.573152e+001
1.834001e+003;4.569201e+001
1.835929e+003;4.566857e+001
1.837858e+003;4.563260e+001
1.839786e+003;4.559509e+001
1.841715e+003;4.556961e+001
1.843643e+003;4.552979e+001
1.845572e+003;4.549205e+001
1.847500e+003;4.546724e+001
1.849429e+003;4.542693e+001
1.851357e+003;4.539552e+001
1.853286e+003;4.536774e+001
1.855214e+003;4.532354e+001
1.857143e+003;4.529135e+001
1.859071e+003;4.526241e+001
1.861000e+003;4.522064e+001
1.862928e+003;4.519419e+001
1.864857e+003;4.515990e+001
1.866785e+003;4.511402e+001
1.868714e+003;4.508575e+001
1.870642e+003;4.505192e+001
1.872571e+003;4.501126e+001
1.874499e+003;4.498594e+001
1.876428e+003;4.494632e+001
1.878356e+003;4.490557e+001
1.880285e+003;4.487636e+001
1.882213e+003;4.483243e+001
1.884142e+003;4.479367e+001
1.886070e+003;4.476627e+001
1.887999e+003;4.471828e+001
1.889927e+003;4.468004e+001
1.891856e+003;4.464855e+001
1.893784e+003;4.459969e+001
1.895713e+003;4.456285e+001
1.897641e+003;4.452782e+001
1.899570e+003;4.447734e+001
1.901498e+003;4.444294e+001
1.903427e+003;4.440024e+001
1.905355e+003;4.434476e+001
1.907284e+003;4.430632e+001
1.909212e+003;4.425994e+001
1.911141e+003;4.420622e+001
1.913069e+003;4.416756e+001
1.914998e+003;4.411032e+001
1.916926e+003;4.405278e+001
1.918855e+003;4.401044e+001
1.920783e+003;4.394875e+001
1.922712e+003;4.389069e+001
1.924640e+003;4.384524e+001
1.926569e+003;4.377728e+001
1.928497e+003;4.371803e+001
1.930426e+003;4.366286e+001
1.932354e+003;4.358915e+001
1.934283e+003;4.353050e+001
1.936211e+003;4.347200e+001
1.938140e+003;4.339383e+001
1.940068e+003;4.333377e+001
1.941997e+003;4.326646e+001
1.943925e+003;4.318802e+001
1.945854e+003;4.312817e+001
1.947782e+003;4.305641e+001
1.949711e+003;4.297766e+001
1.951639e+003;4.291879e+001
1.953568e+003;4.283971e+001
1.955496e+003;4.276080e+001
1.957425e+003;4.270050e+001
1.959353e+003;4.262311e+001
1.961282e+003;4.255025e+001
1.963210e+003;4.248934e+001
1.965139e+003;4.240622e+001
1.967067e+003;4.233887e+001
1.968996e+003;4.227945e+001
1.970924e+003;4.220071e+001
1.972853e+003;4.214054e+001
1.974781e+003;4.208300e+001
1.976710e+003;4.200840e+001
1.978638e+003;4.195667e+001
1.980567e+003;4.189857e+001
1.982495e+003;4.183221e+001
1.984424e+003;4.179330e+001
1.986352e+003;4.174267e+001
1.988281e+003;4.168495e+001
1.990209e+003;4.165421e+001
1.992138e+003;4.160826e+001
1.994066e+003;4.156688e+001
1.995995e+003;4.154612e+001
1.997923e+003;4.150801e+001
1.999852e+003;4.148071e+001
2.001780e+003;4.147109e+001
2.003709e+003;4.143692e+001
2.005637e+003;4.142160e+001
2.007566e+003;4.141851e+001
2.009494e+003;4.139685e+001
2.011423e+003;4.139499e+001
2.013351e+003;4.139399e+001
2.015280e+003;4.137379e+001
2.017208e+003;4.138081e+001
2.019137e+003;4.138005e+001
2.021065e+003;4.136706e+001
2.022994e+003;4.137957e+001
2.024922e+003;4.137917e+001
2.026851e+003;4.136865e+001
2.028779e+003;4.138055e+001
2.030708e+003;4.137247e+001
2.032636e+003;4.136647e+001
2.034565e+003;4.138013e+001
2.036493e+003;4.136875e+001
2.038422e+003;4.136068e+001
2.040350e+003;4.136883e+001
2.042279e+003;4.135217e+001
2.044207e+003;4.134912e+001
2.046135e+003;4.135101e+001
2.048064e+003;4.132881e+001
2.049992e+003;4.132499e+001
2.051921e+003;4.132330e+001
2.053850e+003;4.129614e+001
2.055778e+003;4.129109e+001
2.057707e+003;4.128130e+001
2.059635e+003;4.125705e+001
2.061563e+003;4.125340e+001
2.063492e+003;4.123539e+001
2.065420e+003;4.120694e+001
2.067349e+003;4.120404e+001
2.069278e+003;4.118084e+001
2.071206e+003;4.115549e+001
2.073135e+003;4.115094e+001
2.075063e+003;4.112444e+001
2.076991e+003;4.110122e+001
2.078920e+003;4.109551e+001
2.080848e+003;4.106308e+001
2.082777e+003;4.104364e+001
2.084706e+003;4.103643e+001
2.086634e+003;4.100331e+001
2.088563e+003;4.098552e+001
2.090491e+003;4.097507e+001
2.092419e+003;4.094111e+001
2.094348e+003;4.092987e+001
2.096276e+003;4.091494e+001
2.098205e+003;4.088184e+001
2.100134e+003;4.087398e+001
2.102062e+003;4.085456e+001
2.103990e+003;4.081873e+001
2.105919e+003;4.081237e+001
2.107847e+003;4.079066e+001
2.109776e+003;4.076199e+001
2.111704e+003;4.075441e+001
2.113633e+003;4.072624e+001
2.115562e+003;4.069862e+001
2.117490e+003;4.069173e+001
2.119418e+003;4.065845e+001
2.121347e+003;4.063514e+001
2.123275e+003;4.062663e+001
2.125204e+003;4.059239e+001
2.127132e+003;4.057077e+001
2.129061e+003;4.055630e+001
2.130990e+003;4.051694e+001
2.132918e+003;4.050249e+001
2.134846e+003;4.048622e+001
2.136775e+003;4.044585e+001
2.138703e+003;4.042803e+001
2.140632e+003;4.040488e+001
2.142560e+003;4.036464e+001
2.144489e+003;4.035010e+001
2.146417e+003;4.031944e+001
2.148346e+003;4.028233e+001
2.150274e+003;4.026832e+001
2.152203e+003;4.023103e+001
2.154131e+003;4.019175e+001
2.156060e+003;4.017643e+001
2.157988e+003;4.013563e+001
2.159917e+003;4.010253e+001
2.161845e+003;4.008298e+001
2.163774e+003;4.003799e+001
2.165702e+003;4.000702e+001
2.167631e+003;3.998463e+001
2.169559e+003;3.993481e+001
2.171488e+003;3.990743e+001
2.173416e+003;3.988006e+001
2.175345e+003;3.983202e+001
2.177273e+003;3.980566e+001
2.179202e+003;3.977160e+001
2.181130e+003;3.972192e+001
2.183059e+003;3.970129e+001
2.184987e+003;3.966347e+001
2.186916e+003;3.961531e+001
2.188844e+003;3.959141e+001
2.190773e+003;3.954858e+001
2.192701e+003;3.950354e+001
2.194630e+003;3.948069e+001
2.196558e+003;3.943278e+001
2.198487e+003;3.939420e+001
2.200415e+003;3.936958e+001
2.202344e+003;3.931835e+001
2.204272e+003;3.928020e+001
2.206201e+003;3.925340e+001
2.208129e+003;3.920098e+001
2.210058e+003;3.916907e+001
2.211986e+003;3.913568e+001
2.213915e+003;3.908150e+001
2.215843e+003;3.905211e+001
2.217772e+003;3.901599e+001
2.219700e+003;3.896216e+001
2.221629e+003;3.893624e+001
2.223557e+003;3.889388e+001
2.225486e+003;3.884347e+001
2.227414e+003;3.881625e+001
2.229343e+003;3.876764e+001
2.231271e+003;3.872151e+001
2.233200e+003;3.869936e+001
2.235128e+003;3.864525e+001
2.237057e+003;3.860224e+001
2.238985e+003;3.857518e+001
2.240914e+003;3.851903e+001
2.242842e+003;3.848230e+001
2.244771e+003;3.845316e+001
2.246699e+003;3.839275e+001
2.248628e+003;3.836346e+001
2.250556e+003;3.832939e+001
2.252485e+003;3.827081e+001
2.254413e+003;3.824538e+001
2.256342e+003;3.820717e+001
2.258270e+003;3.815112e+001
2.260199e+003;3.812971e+001
2.262127e+003;3.808139e+001
2.264056e+003;3.803017e+001
2.265984e+003;3.801174e+001
2.267913e+003;3.796109e+001
2.269841e+003;3.791437e+001
2.271770e+003;3.789569e+001
2.273698e+003;3.783926e+001
2.275627e+003;3.780095e+001
2.277555e+003;3.777637e+001
2.279484e+003;3.771595e+001
2.281412e+003;3.768534e+001
2.283341e+003;3.766058e+001
2.285269e+003;3.759747e+001
2.287198e+003;3.757108e+001
2.289126e+003;3.753847e+001
2.291055e+003;3.748002e+001
2.292983e+003;3.745837e+001
2.294912e+003;3.741905e+001
2.296840e+003;3.736249e+001
2.298769e+003;3.734555e+001
2.300697e+003;3.729697e+001
2.302626e+003;3.724496e+001
2.304554e+003;3.722771e+001
2.306483e+003;3.717533e+001
2.308411e+003;3.713029e+001
2.310340e+003;3.711242e+001
2.312268e+003;3.705209e+001
2.314197e+003;3.701529e+001
2.316125e+003;3.699369e+001
2.318054e+003;3.693197e+001
2.319982e+003;3.690097e+001
2.321911e+003;3.687446e+001
2.323839e+003;3.681054e+001
2.325768e+003;3.678857e+001
2.327696e+003;3.675352e+001
2.329625e+003;3.669143e+001
2.331553e+003;3.667474e+001
2.333482e+003;3.663513e+001
2.335410e+003;3.657542e+001
2.337339e+003;3.656072e+001
2.339267e+003;3.651166e+001
2.341196e+003;3.646230e+001
2.343124e+003;3.644775e+001
2.345053e+003;3.639330e+001
2.346981e+003;3.634864e+001
2.348910e+003;3.633343e+001
2.350838e+003;3.627248e+001
2.352767e+003;3.623495e+001
2.354695e+003;3.621557e+001
2.356624e+003;3.615661e+001
2.358552e+003;3.612804e+001
2.360481e+003;3.610134e+001
2.362409e+003;3.603650e+001
2.364338e+003;3.601416e+001
2.366266e+003;3.598055e+001
2.368195e+003;3.591852e+001
2.370123e+003;3.589946e+001
2.372052e+003;3.585931e+001
2.373980e+003;3.580283e+001
2.375908e+003;3.578871e+001
2.377837e+003;3.573771e+001
2.379766e+003;3.568855e+001
2.381694e+003;3.567632e+001
2.383623e+003;3.562027e+001
2.385551e+003;3.557407e+001
2.387479e+003;3.555921e+001
2.389408e+003;3.549823e+001
2.391336e+003;3.546294e+001
2.393265e+003;3.544202e+001
2.395194e+003;3.537989e+001
2.397122e+003;3.535222e+001
2.399051e+003;3.532578e+001
2.400979e+003;3.526029e+001
2.402907e+003;3.523910e+001
2.404836e+003;3.520539e+001
2.406764e+003;3.514690e+001
2.408693e+003;3.513012e+001
2.410622e+003;3.508719e+001
2.412550e+003;3.503003e+001
2.414479e+003;3.501779e+001
2.416407e+003;3.496720e+001
2.418335e+003;3.491779e+001
2.420264e+003;3.490266e+001
2.422192e+003;3.484790e+001
2.424121e+003;3.480730e+001
2.426050e+003;3.479015e+001
2.427978e+003;3.472628e+001
2.429906e+003;3.469504e+001
2.431835e+003;3.467329e+001
2.433763e+003;3.460964e+001
2.435692e+003;3.458374e+001
2.437620e+003;3.455592e+001
2.439549e+003;3.449353e+001
2.441478e+003;3.447625e+001
2.443406e+003;3.443827e+001
2.445334e+003;3.437991e+001
2.447263e+003;3.436568e+001
2.449191e+003;3.432052e+001
2.451120e+003;3.426593e+001
2.453048e+003;3.425446e+001
2.454977e+003;3.420040e+001
2.456906e+003;3.415657e+001
2.458834e+003;3.414177e+001
2.460762e+003;3.408008e+001
2.462691e+003;3.404383e+001
2.464619e+003;3.402913e+001
2.466548e+003;3.396455e+001
2.468476e+003;3.393697e+001
2.470405e+003;3.391247e+001
2.472333e+003;3.384763e+001
2.474262e+003;3.382730e+001
2.476190e+003;3.379513e+001
2.478119e+003;3.373057e+001
2.480047e+003;3.371922e+001
2.481976e+003;3.367796e+001
2.483904e+003;3.361836e+001
2.485833e+003;3.360830e+001
2.487761e+003;3.356015e+001
2.489690e+003;3.350718e+001
2.491618e+003;3.349945e+001
2.493547e+003;3.344094e+001
2.495475e+003;3.339856e+001
2.497404e+003;3.338885e+001
2.499332e+003;3.332555e+001
2.501261e+003;3.328916e+001
2.503189e+003;3.327488e+001
2.505118e+003;3.320850e+001
2.507046e+003;3.318484e+001
2.508975e+003;3.316227e+001
2.510903e+003;3.309462e+001
2.512832e+003;3.307748e+001
2.514760e+003;3.304810e+001
2.516689e+003;3.298113e+001
2.518617e+003;3.297020e+001
2.520546e+003;3.293053e+001
2.522474e+003;3.287173e+001
2.524403e+003;3.286313e+001
2.526331e+003;3.281431e+001
2.528260e+003;3.276099e+001
2.530188e+003;3.275558e+001
2.532117e+003;3.269650e+001
2.534045e+003;3.265076e+001
2.535974e+003;3.264140e+001
2.537902e+003;3.258043e+001
2.539831e+003;3.254498e+001
2.541759e+003;3.253080e+001
2.543688e+003;3.246269e+001
2.545616e+003;3.243812e+001
2.547545e+003;3.241693e+001
2.549473e+003;3.234978e+001
2.551402e+003;3.233004e+001
2.553330e+003;3.230128e+001
2.555259e+003;3.223690e+001
2.557187e+003;3.222618e+001
2.559116e+003;3.218483e+001
2.561044e+003;3.212623e+001
2.562973e+003;3.211936e+001
2.564901e+003;3.207296e+001
2.566830e+003;3.201976e+001
2.568758e+003;3.201219e+001
2.570687e+003;3.195651e+001
2.572615e+003;3.191517e+001
2.574544e+003;3.190287e+001
2.576472e+003;3.184263e+001
2.578401e+003;3.180864e+001
2.580329e+003;3.179352e+001
2.582258e+003;3.172981e+001
2.584186e+003;3.170528e+001
2.586115e+003;3.168020e+001
2.588043e+003;3.161908e+001
2.589972e+003;3.160168e+001
2.591900e+003;3.156862e+001
2.593829e+003;3.150808e+001
2.595757e+003;3.149758e+001
2.597686e+003;3.145498e+001
2.599614e+003;3.140112e+001
2.601543e+003;3.139061e+001
2.603471e+003;3.134172e+001
2.605400e+003;3.129629e+001
2.607328e+003;3.128558e+001
2.609257e+003;3.122543e+001
2.611185e+003;3.119042e+001
2.613114e+003;3.117970e+001
2.615042e+003;3.112122e+001
2.616971e+003;3.109005e+001
2.618899e+003;3.106742e+001
2.620828e+003;3.100216e+001
2.622756e+003;3.098505e+001
2.624685e+003;3.095481e+001
2.626613e+003;3.089150e+001
2.628542e+003;3.088212e+001
2.630470e+003;3.084615e+001
2.632399e+003;3.078485e+001
2.634327e+003;3.077879e+001
2.636256e+003;3.073130e+001
2.638184e+003;3.068058e+001
2.640113e+003;3.067554e+001
2.642041e+003;3.061827e+001
2.643970e+003;3.057394e+001
2.645898e+003;3.057142e+001
2.647827e+003;3.050850e+001
2.649755e+003;3.047416e+001
2.651684e+003;3.046321e+001
2.653612e+003;3.039725e+001
2.655541e+003;3.037296e+001
2.657469e+003;3.035685e+001
2.659398e+003;3.028589e+001
2.661326e+003;3.027214e+001
2.663255e+003;3.024805e+001
2.665183e+003;3.018045e+001
2.667112e+003;3.016980e+001
2.669040e+003;3.013738e+001
2.670969e+003;3.007569e+001
2.672897e+003;3.007177e+001
2.674826e+003;3.002537e+001
2.676754e+003;2.997138e+001
2.678683e+003;2.997008e+001
2.680611e+003;2.991758e+001
2.682540e+003;2.986782e+001
2.684468e+003;2.986377e+001
2.686397e+003;2.980406e+001
2.688325e+003;2.976985e+001
2.690254e+003;2.976154e+001
2.692182e+003;2.969701e+001
2.694111e+003;2.966934e+001
2.696039e+003;2.965653e+001
2.697968e+003;2.959122e+001
2.699896e+003;2.957188e+001
2.701825e+003;2.954715e+001
2.703753e+003;2.948770e+001
2.705682e+003;2.947506e+001
2.707610e+003;2.944095e+001
2.709539e+003;2.938182e+001
2.711467e+003;2.937608e+001
2.713396e+003;2.933339e+001
2.715324e+003;2.928221e+001
2.717253e+003;2.927360e+001
2.719181e+003;2.922552e+001
2.721110e+003;2.918343e+001
2.723038e+003;2.917346e+001
2.724967e+003;2.911702e+001
2.726895e+003;2.908697e+001
2.728823e+003;2.907198e+001
2.730752e+003;2.901321e+001
2.732681e+003;2.898886e+001
2.734609e+003;2.896689e+001
2.736538e+003;2.890815e+001
2.738466e+003;2.889557e+001
2.740395e+003;2.886204e+001
2.742323e+003;2.880504e+001
2.744251e+003;2.879707e+001
2.746180e+003;2.875957e+001
2.748109e+003;2.870779e+001
2.750037e+003;2.870159e+001
2.751966e+003;2.865197e+001
2.753894e+003;2.861132e+001
2.755823e+003;2.860345e+001
2.757751e+003;2.854517e+001
2.759679e+003;2.851191e+001
2.761608e+003;2.850557e+001
2.763537e+003;2.844290e+001
2.765465e+003;2.841806e+001
2.767394e+003;2.840192e+001
2.769322e+003;2.833893e+001
2.771250e+003;2.832396e+001
2.773179e+003;2.830176e+001
2.775107e+003;2.823688e+001
2.777036e+003;2.823178e+001
2.778965e+003;2.819995e+001
2.780893e+003;2.813942e+001
2.782822e+003;2.813500e+001
2.784750e+003;2.809552e+001
2.786678e+003;2.804337e+001
2.788607e+003;2.804451e+001
2.790535e+003;2.799164e+001
2.792464e+003;2.794613e+001
2.794393e+003;2.794765e+001
2.796321e+003;2.789317e+001
2.798250e+003;2.785426e+001
2.800178e+003;2.784929e+001
2.802106e+003;2.778772e+001
2.804035e+003;2.776259e+001
2.805963e+003;2.775053e+001
2.807892e+003;2.768666e+001
2.809821e+003;2.766946e+001
2.811749e+003;2.765394e+001
2.813677e+003;2.758918e+001
2.815606e+003;2.757662e+001
2.817534e+003;2.754975e+001
2.819463e+003;2.749453e+001
2.821391e+003;2.748740e+001
2.823320e+003;2.745040e+001
2.825249e+003;2.739746e+001
2.827177e+003;2.739503e+001
2.829105e+003;2.734992e+001
2.831034e+003;2.730622e+001
2.832962e+003;2.729890e+001
2.834891e+003;2.725025e+001
2.836819e+003;2.721770e+001
2.838748e+003;2.720745e+001
2.840677e+003;2.714948e+001
2.842605e+003;2.712650e+001
2.844533e+003;2.711033e+001
2.846462e+003;2.705448e+001
2.848390e+003;2.703461e+001
2.850319e+003;2.700984e+001
2.852247e+003;2.695687e+001
2.854176e+003;2.694822e+001
2.856104e+003;2.690951e+001
2.858033e+003;2.686009e+001
2.859961e+003;2.685629e+001
2.861890e+003;2.681656e+001
2.863818e+003;2.677366e+001
2.865747e+003;2.676638e+001
2.867675e+003;2.671421e+001
2.869604e+003;2.668515e+001
2.871532e+003;2.667749e+001
2.873461e+003;2.662007e+001
2.875389e+003;2.659530e+001
2.877318e+003;2.658589e+001
2.879246e+003;2.652521e+001
2.881175e+003;2.650887e+001
2.883103e+003;2.648713e+001
2.885032e+003;2.643052e+001
2.886960e+003;2.642368e+001
2.888889e+003;2.639407e+001
2.890817e+003;2.633339e+001
2.892746e+003;2.633461e+001
2.894674e+003;2.630066e+001
2.896603e+003;2.624859e+001
2.898531e+003;2.624583e+001
2.900460e+003;2.620285e+001
2.902388e+003;2.616009e+001
2.904317e+003;2.616168e+001
2.906245e+003;2.610500e+001
2.908174e+003;2.606846e+001
2.910102e+003;2.606896e+001
2.912031e+003;2.601488e+001
2.913959e+003;2.598497e+001
2.915888e+003;2.597789e+001
2.917816e+003;2.591848e+001
2.919745e+003;2.590026e+001
2.921673e+003;2.588393e+001
2.923602e+003;2.582322e+001
2.925530e+003;2.581222e+001
2.927459e+003;2.579323e+001
2.929387e+003;2.573512e+001
2.931316e+003;2.572701e+001
2.933244e+003;2.569588e+001
2.935173e+003;2.564860e+001
2.937101e+003;2.564263e+001
2.939030e+003;2.560247e+001
2.940958e+003;2.555968e+001
2.942887e+003;2.555933e+001
2.944815e+003;2.551440e+001
2.946744e+003;2.547944e+001
2.948672e+003;2.546846e+001
2.950601e+003;2.542154e+001
2.952529e+003;2.539722e+001
2.954458e+003;2.538103e+001
2.956386e+003;2.532506e+001
2.958315e+003;2.531085e+001
2.960243e+003;2.529151e+001
2.962172e+003;2.524105e+001
2.964100e+003;2.522692e+001
2.966029e+003;2.519647e+001
2.967957e+003;2.515258e+001
2.969886e+003;2.514995e+001
2.971814e+003;2.510797e+001
2.973743e+003;2.506815e+001
2.975671e+003;2.506541e+001
2.977600e+003;2.502094e+001
2.979528e+003;2.498716e+001
2.981457e+003;2.498025e+001
2.983385e+003;2.492722e+001
2.985314e+003;2.490746e+001
2.987242e+003;2.489683e+001
2.989171e+003;2.483900e+001
2.991099e+003;2.482582e+001
2.993028e+003;2.481465e+001
2.994956e+003;2.475413e+001
2.996885e+003;2.474524e+001
2.998813e+003;2.472144e+001
3.000742e+003;2.466974e+001
3.002670e+003;2.467014e+001
3.004599e+003;2.463725e+001
3.006527e+003;2.458294e+001
3.008456e+003;2.458905e+001
3.010384e+003;2.455207e+001
3.012313e+003;2.450795e+001
3.014241e+003;2.450824e+001
3.016170e+003;2.446280e+001
3.018098e+003;2.442787e+001
3.020027e+003;2.442932e+001
3.021955e+003;2.437372e+001
3.023884e+003;2.434721e+001
3.025812e+003;2.434729e+001
3.027741e+003;2.429469e+001
3.029669e+003;2.427073e+001
3.031598e+003;2.426074e+001
3.033526e+003;2.420951e+001
3.035455e+003;2.419931e+001
3.037383e+003;2.417715e+001
3.039312e+003;2.412565e+001
3.041240e+003;2.412062e+001
3.043169e+003;2.409806e+001
3.045097e+003;2.404850e+001
3.047026e+003;2.404006e+001
3.048954e+003;2.400637e+001
3.050883e+003;2.397284e+001
3.052811e+003;2.396601e+001
3.054740e+003;2.392259e+001
3.056668e+003;2.389112e+001
3.058597e+003;2.388678e+001
3.060525e+003;2.384202e+001
3.062454e+003;2.381909e+001
3.064382e+003;2.380257e+001
3.066311e+003;2.375900e+001
3.068239e+003;2.374723e+001
3.070167e+003;2.372554e+001
3.072096e+003;2.367615e+001
3.074025e+003;2.367200e+001
3.075953e+003;2.364630e+001
3.077882e+003;2.360511e+001
3.079810e+003;2.359744e+001
3.081739e+003;2.356032e+001
3.083667e+003;2.352600e+001
3.085595e+003;2.352703e+001
3.087524e+003;2.347826e+001
3.089453e+003;2.344829e+001
3.091381e+003;2.344825e+001
3.093310e+003;2.340019e+001
3.095238e+003;2.337506e+001
3.097167e+003;2.336971e+001
3.099095e+003;2.331778e+001
3.101023e+003;2.330675e+001
3.102952e+003;2.329447e+001
3.104881e+003;2.323932e+001
3.106809e+003;2.323284e+001
3.108738e+003;2.321906e+001
3.110666e+003;2.316453e+001
3.112594e+003;2.316077e+001
3.114523e+003;2.313626e+001
3.116451e+003;2.309257e+001
3.118380e+003;2.309371e+001
3.120309e+003;2.305954e+001
3.122237e+003;2.301223e+001
3.124166e+003;2.301737e+001
3.126094e+003;2.298234e+001
3.128022e+003;2.294652e+001
3.129951e+003;2.294204e+001
3.131879e+003;2.290108e+001
3.133808e+003;2.287642e+001
3.135737e+003;2.287357e+001
3.137665e+003;2.282473e+001
3.139594e+003;2.280521e+001
3.141522e+003;2.279659e+001
3.143450e+003;2.275326e+001
3.145379e+003;2.273550e+001
3.147307e+003;2.271740e+001
3.149236e+003;2.267777e+001
3.151165e+003;2.267384e+001
3.153093e+003;2.264491e+001
3.155021e+003;2.260413e+001
3.156950e+003;2.259749e+001
3.158878e+003;2.257007e+001
3.160807e+003;2.253864e+001
3.162735e+003;2.253099e+001
3.164664e+003;2.249160e+001
3.166593e+003;2.247094e+001
3.168521e+003;2.246203e+001
3.170449e+003;2.241852e+001
3.172378e+003;2.239937e+001
3.174306e+003;2.238984e+001
3.176235e+003;2.234661e+001
3.178163e+003;2.233635e+001
3.180092e+003;2.231407e+001
3.182021e+003;2.227340e+001
3.183949e+003;2.227103e+001
3.185877e+003;2.224536e+001
3.187806e+003;2.220144e+001
3.189734e+003;2.220265e+001
3.191663e+003;2.217194e+001
3.193591e+003;2.213817e+001
3.195520e+003;2.213660e+001
3.197448e+003;2.209759e+001
3.199377e+003;2.206908e+001
3.201305e+003;2.207297e+001
3.203234e+003;2.202660e+001
3.205162e+003;2.200381e+001
3.207091e+003;2.200370e+001
3.209019e+003;2.196002e+001
3.210948e+003;2.194111e+001
3.212876e+003;2.193367e+001
3.214805e+003;2.188633e+001
3.216733e+003;2.187994e+001
3.218662e+003;2.186663e+001
3.220590e+003;2.181909e+001
3.222519e+003;2.181211e+001
3.224447e+003;2.179778e+001
3.226376e+003;2.175533e+001
3.228304e+003;2.175028e+001
3.230233e+003;2.172343e+001
3.232161e+003;2.169308e+001
3.234090e+003;2.169133e+001
3.236018e+003;2.165924e+001
3.237947e+003;2.162640e+001
3.239875e+003;2.162420e+001
3.241804e+003;2.159184e+001
3.243732e+003;2.156930e+001
3.245661e+003;2.155731e+001
3.247589e+003;2.152208e+001
3.249518e+003;2.150670e+001
3.251446e+003;2.149547e+001
3.253375e+003;2.145589e+001
3.255303e+003;2.144266e+001
3.257232e+003;2.142231e+001
3.259160e+003;2.139116e+001
3.261089e+003;2.138187e+001
3.263017e+003;2.135531e+001
3.264946e+003;2.132697e+001
3.266874e+003;2.132553e+001
3.268803e+003;2.129255e+001
3.270731e+003;2.126644e+001
3.272660e+003;2.125892e+001
3.274588e+003;2.122633e+001
3.276517e+003;2.120752e+001
3.278445e+003;2.119924e+001
3.280374e+003;2.115759e+001
3.282302e+003;2.114787e+001
3.284231e+003;2.113661e+001
3.286159e+003;2.109481e+001
3.288088e+003;2.108586e+001
3.290016e+003;2.107418e+001
3.291945e+003;2.103431e+001
3.293873e+003;2.103063e+001
3.295802e+003;2.100706e+001
3.297730e+003;2.097162e+001
3.299659e+003;2.097334e+001
3.301587e+003;2.094829e+001
3.303516e+003;2.091155e+001
3.305444e+003;2.091391e+001
3.307373e+003;2.088409e+001
3.309301e+003;2.085549e+001
3.311230e+003;2.085182e+001
3.313158e+003;2.081793e+001
3.315087e+003;2.079526e+001
3.317015e+003;2.079498e+001
3.318944e+003;2.075590e+001
3.320872e+003;2.073728e+001
3.322801e+003;2.073118e+001
3.324729e+003;2.069843e+001
3.326658e+003;2.068217e+001
3.328586e+003;2.066943e+001
3.330515e+003;2.063546e+001
3.332443e+003;2.062950e+001
3.334372e+003;2.061071e+001
3.336300e+003;2.057747e+001
3.338229e+003;2.056827e+001
3.340157e+003;2.054949e+001
3.342086e+003;2.052200e+001
3.344014e+003;2.051367e+001
3.345943e+003;2.048565e+001
3.347871e+003;2.046738e+001
3.349800e+003;2.045804e+001
3.351728e+003;2.042761e+001
3.353657e+003;2.040787e+001
3.355585e+003;2.039716e+001
3.357514e+003;2.036763e+001
3.359442e+003;2.035821e+001
3.361371e+003;2.033740e+001
3.363299e+003;2.030734e+001
3.365228e+003;2.030315e+001
3.367156e+003;2.028483e+001
3.369085e+003;2.025186e+001
3.371013e+003;2.024669e+001
3.372942e+003;2.022299e+001
3.374870e+003;2.019890e+001
3.376799e+003;2.019188e+001
3.378727e+003;2.016134e+001
3.380656e+003;2.014045e+001
3.382584e+003;2.014241e+001
3.384513e+003;2.010726e+001
3.386441e+003;2.008689e+001
3.388370e+003;2.008221e+001
3.390298e+003;2.005335e+001
3.392227e+003;2.003784e+001
3.394155e+003;2.002683e+001
3.396083e+003;1.999181e+001
3.398012e+003;1.998724e+001
3.399941e+003;1.997542e+001
3.401869e+003;1.993910e+001
3.403798e+003;1.992820e+001
3.405726e+003;1.991727e+001
3.407655e+003;1.988699e+001
3.409583e+003;1.987924e+001
3.411511e+003;1.985622e+001
3.413440e+003;1.983167e+001
3.415369e+003;1.982930e+001
3.417297e+003;1.980828e+001
3.419226e+003;1.977852e+001
3.421154e+003;1.977400e+001
3.423083e+003;1.975349e+001
3.425011e+003;1.973348e+001
3.426939e+003;1.971847e+001
3.428868e+003;1.969510e+001
3.430797e+003;1.968330e+001
3.432725e+003;1.967321e+001
3.434654e+003;1.964356e+001
3.436582e+003;1.963035e+001
3.438510e+003;1.961712e+001
3.440439e+003;1.959645e+001
3.442367e+003;1.958125e+001
3.444296e+003;1.956074e+001
3.446225e+003;1.954194e+001
3.448153e+003;1.953703e+001
3.450082e+003;1.951151e+001
3.452010e+003;1.949121e+001
3.453938e+003;1.948129e+001
3.455867e+003;1.946143e+001
3.457795e+003;1.944568e+001
3.459724e+003;1.943211e+001
3.461653e+003;1.940332e+001
3.463581e+003;1.939765e+001
3.465510e+003;1.938754e+001
3.467438e+003;1.935775e+001
3.469366e+003;1.934432e+001
3.471295e+003;1.933516e+001
3.473223e+003;1.931056e+001
3.475152e+003;1.930228e+001
3.477081e+003;1.928093e+001
3.479009e+003;1.925999e+001
3.480938e+003;1.925670e+001
3.482866e+003;1.923712e+001
3.484794e+003;1.920829e+001
3.486723e+003;1.920477e+001
3.488651e+003;1.918745e+001
3.490580e+003;1.916912e+001
3.492509e+003;1.915825e+001
3.494437e+003;1.913440e+001
3.496365e+003;1.911850e+001
3.498294e+003;1.911616e+001
3.500222e+003;1.908905e+001
3.502151e+003;1.907014e+001
3.504079e+003;1.906241e+001
3.506008e+003;1.904542e+001
3.507937e+003;1.902794e+001
3.509865e+003;1.901308e+001
3.511793e+003;1.899267e+001
3.513722e+003;1.898651e+001
3.515650e+003;1.897176e+001
3.517579e+003;1.894798e+001
3.519507e+003;1.893357e+001
3.521436e+003;1.892361e+001
3.523365e+003;1.890689e+001
3.525293e+003;1.889105e+001
3.527221e+003;1.886940e+001
3.529150e+003;1.885925e+001
3.531078e+003;1.884906e+001
3.533007e+003;1.882996e+001
3.534935e+003;1.881151e+001
3.536864e+003;1.880131e+001
3.538792e+003;1.878742e+001
3.540721e+003;1.877678e+001
3.542649e+003;1.875403e+001
3.544578e+003;1.873752e+001
3.546506e+003;1.873196e+001
3.548435e+003;1.871763e+001
3.550363e+003;1.869414e+001
3.552292e+003;1.868301e+001
3.554220e+003;1.866786e+001
3.556149e+003;1.865689e+001
3.558077e+003;1.864359e+001
3.560006e+003;1.862228e+001
3.561934e+003;1.861018e+001
3.563863e+003;1.860469e+001
3.565791e+003;1.858080e+001
3.567720e+003;1.856442e+001
3.569648e+003;1.855503e+001
3.571577e+003;1.854284e+001
3.573505e+003;1.852910e+001
3.575434e+003;1.851503e+001
3.577362e+003;1.849539e+001
3.579291e+003;1.848969e+001
3.581219e+003;1.847832e+001
3.583148e+003;1.845699e+001
3.585076e+003;1.844162e+001
3.587005e+003;1.843505e+001
3.588933e+003;1.841982e+001
3.590862e+003;1.840583e+001
3.592790e+003;1.838926e+001
3.594719e+003;1.837688e+001
3.596647e+003;1.836736e+001
3.598576e+003;1.835559e+001
3.600504e+003;1.833456e+001
3.602433e+003;1.832249e+001
3.604361e+003;1.831473e+001
3.606290e+003;1.830262e+001
3.608218e+003;1.828111e+001
3.610147e+003;1.826913e+001
3.612075e+003;1.826028e+001
3.614004e+003;1.825062e+001
3.615932e+003;1.823428e+001
3.617861e+003;1.821683e+001
3.619789e+003;1.820573e+001
3.621718e+003;1.820249e+001
3.623646e+003;1.818498e+001
3.625575e+003;1.816747e+001
3.627503e+003;1.815524e+001
3.629432e+003;1.814601e+001
3.631360e+003;1.813364e+001
3.633289e+003;1.812002e+001
3.635217e+003;1.810375e+001
3.637146e+003;1.809915e+001
3.639074e+003;1.808842e+001
3.641003e+003;1.806969e+001
3.642931e+003;1.805475e+001
3.644860e+003;1.804970e+001
3.646788e+003;1.803667e+001
3.648717e+003;1.802118e+001
3.650645e+003;1.800286e+001
3.652574e+003;1.799719e+001
3.654502e+003;1.799237e+001
3.656431e+003;1.797749e+001
3.658359e+003;1.795768e+001
3.660288e+003;1.794956e+001
3.662216e+003;1.794025e+001
3.664145e+003;1.793274e+001
3.666073e+003;1.791768e+001
3.668002e+003;1.790217e+001
3.669930e+003;1.789502e+001
3.671859e+003;1.788867e+001
3.673787e+003;1.786636e+001
3.675716e+003;1.785552e+001
3.677644e+003;1.784661e+001
3.679573e+003;1.783685e+001
3.681501e+003;1.782752e+001
3.683430e+003;1.781087e+001
3.685358e+003;1.779846e+001
3.687287e+003;1.779732e+001
3.689215e+003;1.777920e+001
3.691144e+003;1.776308e+001
3.693072e+003;1.775607e+001
3.695001e+003;1.774671e+001
3.696929e+003;1.773688e+001
3.698858e+003;1.772721e+001
3.700786e+003;1.770528e+001
3.702715e+003;1.770234e+001
3.704643e+003;1.769598e+001
3.706572e+003;1.767437e+001
3.708500e+003;1.766329e+001
3.710429e+003;1.765936e+001
3.712357e+003;1.764677e+001
3.714286e+003;1.764258e+001
3.716214e+003;1.762348e+001
3.718143e+003;1.760921e+001
3.720071e+003;1.761146e+001
3.722000e+003;1.759832e+001
3.723928e+003;1.757539e+001
3.725857e+003;1.757335e+001
3.727785e+003;1.756322e+001
3.729714e+003;1.755554e+001
3.731642e+003;1.754490e+001
3.733571e+003;1.752396e+001
3.735499e+003;1.751953e+001
3.737427e+003;1.752212e+001
3.739356e+003;1.749824e+001
3.741285e+003;1.748840e+001
3.743213e+003;1.747612e+001
3.745142e+003;1.746190e+001
3.747070e+003;1.746008e+001
3.748999e+003;1.744325e+001
3.750927e+003;1.742040e+001
3.752855e+003;1.742842e+001
3.754784e+003;1.741683e+001
3.756713e+003;1.739380e+001
3.758641e+003;1.739160e+001
3.760570e+003;1.738240e+001
3.762498e+003;1.737165e+001
3.764427e+003;1.736943e+001
3.766355e+003;1.734378e+001
3.768283e+003;1.733772e+001
3.770212e+003;1.734062e+001
3.772141e+003;1.731941e+001
3.774069e+003;1.730707e+001
3.775998e+003;1.730858e+001
3.777926e+003;1.729303e+001
3.779854e+003;1.728995e+001
3.781783e+003;1.727491e+001
3.783711e+003;1.725637e+001
3.785640e+003;1.726265e+001
3.787569e+003;1.725393e+001
3.789497e+003;1.722734e+001
3.791426e+003;1.722551e+001
3.793354e+003;1.721535e+001
3.795282e+003;1.720847e+001
3.797211e+003;1.720476e+001
3.799139e+003;1.718058e+001
3.801068e+003;1.717252e+001
3.802997e+003;1.718342e+001
3.804925e+003;1.715871e+001
3.806854e+003;1.714649e+001
3.808782e+003;1.714615e+001
3.810710e+003;1.713120e+001
3.812639e+003;1.713076e+001
3.814567e+003;1.711646e+001
3.816496e+003;1.709071e+001
3.818425e+003;1.710762e+001
3.820353e+003;1.709835e+001
3.822281e+003;1.707075e+001
3.824210e+003;1.707269e+001
3.826138e+003;1.706321e+001
3.828067e+003;1.705102e+001
3.829995e+003;1.705809e+001
3.831924e+003;1.703024e+001
3.833853e+003;1.702104e+001
3.835781e+003;1.703401e+001
3.837709e+003;1.700914e+001
3.839638e+003;1.699481e+001
3.841566e+003;1.700283e+001
3.843495e+003;1.698229e+001
3.845423e+003;1.698287e+001
3.847352e+003;1.697914e+001
3.849281e+003;1.695117e+001
3.851209e+003;1.695601e+001
3.853137e+003;1.695601e+001
3.855066e+003;1.692593e+001
3.856994e+003;1.693008e+001
3.858923e+003;1.692645e+001
3.860851e+003;1.691218e+001
3.862780e+003;1.691532e+001
3.864708e+003;1.689437e+001
3.866637e+003;1.687958e+001
3.868565e+003;1.689548e+001
3.870494e+003;1.687255e+001
3.872422e+003;1.685761e+001
3.874351e+003;1.686370e+001
3.876279e+003;1.685049e+001
3.878208e+003;1.684635e+001
3.880136e+003;1.684295e+001
3.882065e+003;1.681449e+001
3.883993e+003;1.682296e+001
3.885922e+003;1.682303e+001
3.887850e+003;1.679631e+001
3.889779e+003;1.679527e+001
3.891707e+003;1.678920e+001
3.893636e+003;1.677494e+001
3.895564e+003;1.678813e+001
3.897493e+003;1.676224e+001
3.899421e+003;1.674484e+001
3.901350e+003;1.676515e+001
3.903278e+003;1.674592e+001
3.905207e+003;1.672640e+001
3.907135e+003;1.673676e+001
3.909064e+003;1.671404e+001
3.910992e+003;1.671661e+001
3.912921e+003;1.671937e+001
3.914849e+003;1.668396e+001
3.916778e+003;1.669033e+001
3.918706e+003;1.670342e+001
3.920635e+003;1.666765e+001
3.922563e+003;1.666951e+001
3.924492e+003;1.666948e+001
3.926420e+003;1.664981e+001
3.928349e+003;1.666148e+001
3.930277e+003;1.664538e+001
3.932206e+003;1.661678e+001
3.934134e+003;1.664270e+001
3.936063e+003;1.662827e+001
3.937991e+003;1.660300e+001
3.939920e+003;1.661621e+001
3.941848e+003;1.660192e+001
3.943777e+003;1.659165e+001
3.945705e+003;1.660204e+001
3.947634e+003;1.656858e+001
3.949562e+003;1.656978e+001
3.951491e+003;1.658602e+001
3.953419e+003;1.655717e+001
3.955348e+003;1.655046e+001
3.957276e+003;1.655557e+001
3.959205e+003;1.653647e+001
3.961133e+003;1.654832e+001
3.963062e+003;1.653321e+001
3.964990e+003;1.650835e+001
3.966919e+003;1.652885e+001
3.968847e+003;1.651926e+001
3.970776e+003;1.649355e+001
3.972704e+003;1.650456e+001
3.974633e+003;1.648602e+001
3.976561e+003;1.648337e+001
3.978490e+003;1.649399e+001
3.980418e+003;1.645956e+001
3.982347e+003;1.645971e+001
3.984275e+003;1.648153e+001
3.986204e+003;1.644723e+001
3.988132e+003;1.644685e+001
3.990061e+003;1.645168e+001
3.991989e+003;1.642750e+001
3.993918e+003;1.644189e+001
3.995846e+003;1.643332e+001
3.997775e+003;1.639855e+001
3.999703e+003;1.642736e+001
