991.312	14.0516
989.711	594.85
988.11	597.887
986.508	583.755
984.906	608.641
983.304	638.201
981.701	625.628
980.099	623.977
978.496	597.371
976.893	633.153
975.29	656.449
973.686	657.911
972.082	642.226
970.478	651.482
968.874	649.827
967.269	640.382
965.665	649.633
964.06	615.267
962.454	669.684
960.849	632.21
959.243	650.798
957.637	639.801
956.031	614.8
954.425	650.499
952.818	658.179
951.211	732.753
949.604	667.308
947.996	662.539
946.389	657.77
944.781	702.756
943.172	688.655
941.564	688.546
939.955	655.803
938.346	661.914
936.737	683.559
935.128	643.064
933.518	666.257
931.908	670.809
930.298	659.833
928.687	681.459
927.076	703.077
925.465	645.547
923.854	657.854
922.242	649.99
920.631	676.252
919.018	642.024
917.406	648.12
915.793	661.966
914.181	672.707
912.567	641.6
910.954	667.835
909.34	644.485
907.726	636.633
906.112	634.977
904.498	634.871
902.883	656.439
901.268	645.493
899.652	633.002
898.037	628.253
896.421	621.957
894.805	651.242
893.188	621.745
891.572	632.463
889.955	638.539
888.338	661.617
886.72	642.957
885.102	652.117
883.484	616.469
881.866	628.72
880.247	606.988
878.628	616.148
877.009	599.057
875.389	591.233
873.77	571.065
872.15	617.26
870.529	638.751
868.909	609.329
867.288	609.222
865.666	609.114
864.045	619.799
862.423	601.19
860.801	576.424
859.179	630.255
857.556	588.543
855.933	605.383
854.31	583.712
852.686	600.546
851.063	572.725
849.439	561.847
847.814	595.604
846.189	587.803
844.564	569.234
842.939	601.433
841.314	561.338
839.688	575.075
838.062	578.044
836.435	582.55
834.808	579.37
833.181	573.118
831.554	597.592
829.926	551.404
828.298	606.586
826.67	578.837
825.041	557.239
823.413	574.019
821.783	547.826
820.154	538.519
818.524	592.107
816.894	598.132
815.264	555.085
813.633	574.912
812.002	557.944
810.371	568.567
808.739	528.622
807.107	574.482
805.475	549.867
803.842	560.483
802.21	525.163
800.576	534.248
798.943	531.086
797.309	566.181
795.675	569.134
794.041	546.081
792.406	553.624
790.771	571.868
789.136	562.586
787.5	554.837
785.864	537.921
784.228	556.153
782.592	556.047
780.955	531.503
779.317	561.942
777.68	526.719
776.042	549.515
774.404	540.252
772.766	524.89
771.127	550.723
769.488	544.516
767.848	570.335
766.209	519.911
764.569	547.249
762.928	542.571
761.288	513.514
759.647	562.166
758.005	507.222
756.364	537.581
754.722	543.567
753.08	520.627
751.437	579.883
749.794	531.076
748.151	532.493
746.507	552.164
744.864	533.806
743.219	524.578
741.575	519.915
739.93	527.413
738.285	484.76
736.639	515.051
734.994	530.14
733.348	495.105
731.701	542.079
730.054	545.008
728.407	563.115
726.76	520.513
725.112	532.548
723.464	518.79
721.816	533.854
720.167	506.454
718.518	532.127
716.869	527.474
715.219	516.761
713.569	542.416
711.918	534.734
710.268	530.084
708.617	525.436
706.965	528.36
705.314	531.282
703.662	529.663
702.009	537.122
700.357	547.604
698.704	559.594
697.05	564.019
695.397	583.56
693.743	603.093
692.089	580.304
690.434	593.786
688.779	586.114
687.124	570.893
685.468	564.739
683.812	584.252
682.156	605.266
680.499	627.781
678.842	598.988
677.185	613.952
675.527	654.55
673.869	658.942
672.211	651.271
670.552	625.517
668.893	684.162
667.234	649.371
665.574	682.38
663.915	677.724
662.254	712.22
660.594	698.527
658.933	657.747
657.271	671.158
655.61	669.518
653.948	678.408
652.285	715.869
650.623	757.826
648.96	729.109
647.296	697.398
645.633	727.311
643.969	748.198
642.304	710.494
640.64	741.887
638.975	789.785
637.309	777.615
635.644	742.937
633.978	768.296
632.311	763.639
630.645	791.983
628.978	740.834
627.31	800.658
625.642	764.518
623.974	810.824
622.306	864.603
620.637	788.022
618.968	793.853
617.299	769.731
615.629	784.546
613.959	773.908
612.288	751.301
610.618	746.659
608.947	824.3
607.275	827.123
605.603	794.056
603.931	834.262
602.259	759.352
600.586	738.275
598.913	793.409
597.239	776.814
595.565	755.746
593.891	766.044
592.217	706.17
590.542	728.415
588.867	714.835
587.191	708.721
585.515	708.577
583.839	672.637
582.162	681.447
580.485	667.89
578.808	660.301
577.131	649.735
575.453	603.415
573.774	588.395
572.096	607.636
570.417	573.265
568.737	583.568
567.058	589.403
565.378	555.056
563.697	569.821
562.017	590.529
560.336	581.485
558.654	597.722
556.972	585.707
555.29	588.559
553.608	578.037
551.925	592.776
550.242	591.169
548.559	613.324
546.875	639.924
545.191	656.121
543.506	639.662
541.821	730.044
540.136	703.192
538.451	713.43
536.765	787.43
535.079	760.582
533.392	822.683
531.705	906.99
530.018	914.212
528.33	940.691
526.642	1067.87
524.954	1107.64
523.266	1304.31
521.577	1644.49
519.887	2222.79
518.198	2046.26
516.508	1711.53
514.817	1607.65
513.127	1709.35
511.435	1845.01
509.744	1968.79
508.052	1993.51
506.36	2096.52
504.668	2245.29
502.975	2231.54
501.282	2433.37
499.588	2521.45
497.895	2612.44
496.2	2713.72
494.506	2779.56
492.811	2815.87
491.116	2925.9
489.42	2972.48
487.724	3101.6
486.028	3229.19
484.332	3190.21
482.635	3204.29
480.937	3392.17
479.24	3392.95
477.542	3255.33
475.843	3287.05
474.145	3364.38
472.446	3300.42
470.746	3237.96
469.047	3213.76
467.346	3263.1
465.646	3200.68
463.945	3169.16
462.244	3117.08
460.543	3069.42
458.841	2980.65
457.139	2965.35
455.436	2842.87
453.733	2811.46
452.03	2777.12
450.327	2736.93
448.623	2564.71
446.919	2597.92
445.214	2400.86
443.509	2429.7
441.804	2344.17
440.098	2216.18
438.392	2160.04
436.686	2156.66
434.979	2058.08
433.272	2038.62
431.565	1959.14
429.857	1903.11
428.149	1860.27
426.44	1775.02
424.732	1743.93
423.022	1743.58
421.313	1684.72
419.603	1659.52
417.893	1627.02
416.182	1623.77
414.472	1550.37
412.76	1555.9
411.049	1489.85
409.337	1445.74
407.625	1481.95
405.912	1411.58
404.199	1444.85
402.486	1403.7
400.772	1406.33
399.058	1352.08
397.344	1331.39
395.629	1312.16
393.914	1288.57
392.198	1295.6
390.483	1260.36
388.766	1273.22
387.05	1192.85
385.333	1182.41
383.616	1173.44
381.898	1225.6
380.181	1110.38
378.462	1143.62
376.744	1146.29
375.025	1092.25
373.305	1074.58
371.586	1120.88
369.866	1094.49
368.146	1056.48
366.425	1101.3
364.704	1066.22
362.982	1048.57
361.261	1001.89
359.539	1039.43
357.816	1027.61
356.093	995.473
354.37	1017.03
352.647	947.199
350.923	967.309
349.199	993.211
347.474	958.216
345.749	1001.5
344.024	959.274
342.298	1002.54
340.572	987.851
338.846	968.823
337.119	948.355
335.392	982.903
333.665	971.124
331.937	962.243
330.209	953.367
328.481	964.743
326.752	963.099
325.023	945.553
323.293	945.36
321.563	930.714
319.833	960.867
318.103	983.784
316.372	935.92
314.64	924.177
312.909	921.1
311.177	954.111
309.444	891.86
307.712	933.52
305.979	914.576
304.245	898.524
302.512	919.969
300.777	898.156
299.043	867.703
297.308	889.141
295.573	855.821
293.837	867.17
292.102	802.184
290.365	790.5
288.629	809.053
286.892	829.037
285.154	800.087
283.417	778.342
281.679	743.66
279.94	806.785
278.202	726.101
276.463	776.265
274.723	721.491
272.983	765.888
271.243	699.645
269.503	705.246
267.762	707.973
266.02	706.392
264.279	707.682
262.537	663.046
260.795	675.823
259.052	644.124
257.309	645.425
255.565	622.349
253.822	650.894
252.078	624.959
250.333	614.798
248.588	601.776
246.843	607.382
245.098	602.96
243.352	564.174
241.605	552.604
239.859	555.353
238.112	553.807
236.364	533.662
234.617	539.273
232.869	582.066
231.12	591.954
229.371	544.657
227.622	548.831
225.873	574.439
224.123	567.176
222.372	537.063
220.622	622.635
218.871	575.39
217.119	632.369
215.368	626.529
213.616	634.96
211.863	614.855
210.11	641.827
208.357	663.083
206.604	637.282
204.85	632.873
203.096	619.915
201.341	676.778
199.586	660.967
197.831	666.526
196.075	726.19
194.319	731.733
192.562	741.543
190.805	744.234
189.048	781.068
187.291	843.491
185.533	844.736
183.774	831.762
182.016	872.812
180.257	861.258
178.497	879.549
176.737	923.403
174.977	911.846
173.217	910.234
171.456	897.265
169.694	882.881
167.933	925.269
166.171	891.022
164.408	844.022
162.646	835.334
160.882	840.829
159.119	771.187
157.355	803.622
155.591	726.933
153.826	712.611
152.061	610.477
150.296	538.125
148.53	496.952
146.764	394.929
144.997	365.125
143.23	324.015
141.463	306.971
139.696	295.591
137.928	275.731
136.159	265.776
134.39	255.826
132.621	244.466
130.852	257.129
129.082	207.636
127.311	220.301
125.541	206.135
123.77	160.92
121.998	156.652
120.226	108.645
118.454	87.4614
116.682	60.6456
114.909	45.1219
113.135	36.6536
111.362	21.1417
109.587	31.0011
107.813	26.7679
106.038	25.3535
104.263	22.5316
102.487	22.5267
100.711	11.2609
98.9345	15.4803
97.1576	25.3259
95.3804	15.4736
93.6028	15.4702
91.8248	18.2789
90.0464	15.4634
88.2676	9.83818
86.4885	16.8617
84.7089	22.4774
82.9289	19.6634
81.1486	19.659
79.3678	23.8664
77.5867	18.2467
75.8052	22.4526
74.0232	11.2238
72.2409	23.8453
70.4582	9.81646
68.6751	22.4326
66.8916	18.2225
65.1076	23.8241
63.3233	14.011
61.5386	14.0079
59.7535	18.2062
57.968	19.6023
56.1821	12.5986
54.3958	12.5958
52.6091	33.5813
50.822	25.1803
49.0345	12.5873
47.2465	18.1775
45.4582	26.5612
43.6695	18.1693
41.8803	20.9599
40.0908	12.5731
38.3009	18.157
36.5105	16.7565
34.7197	32.1092
32.9286	20.936
31.137	15.3496
29.345	22.3215
27.5526	23.7112
25.7598	12.5501
23.9666	22.3062
22.1729	18.1196
20.3789	23.6894
18.5844	25.0771
