3.991989e+002;5.124711e+001
4.011274e+002;5.133680e+001
4.030559e+002;5.150834e+001
4.049844e+002;5.179382e+001
4.069129e+002;5.136315e+001
4.088414e+002;5.115622e+001
4.107699e+002;5.178471e+001
4.126984e+002;5.189856e+001
4.146269e+002;5.162241e+001
4.165554e+002;5.161311e+001
4.184839e+002;5.184184e+001
4.204124e+002;5.189019e+001
4.223409e+002;5.165258e+001
4.242694e+002;5.150077e+001
4.261979e+002;5.157381e+001
4.281264e+002;5.173132e+001
4.300549e+002;5.168866e+001
4.319834e+002;5.147647e+001
4.339119e+002;5.160792e+001
4.358404e+002;5.171696e+001
4.377689e+002;5.177678e+001
4.396974e+002;5.176926e+001
4.416259e+002;5.162060e+001
4.435544e+002;5.151052e+001
4.454829e+002;5.139986e+001
4.474114e+002;5.133535e+001
4.493399e+002;5.141521e+001
4.512684e+002;5.130386e+001
4.531969e+002;5.109588e+001
4.551254e+002;5.097402e+001
4.570539e+002;5.099265e+001
4.589824e+002;5.091516e+001
4.609109e+002;5.073320e+001
4.628394e+002;5.067967e+001
4.647679e+002;5.064201e+001
4.666964e+002;5.045735e+001
4.686248e+002;5.035368e+001
4.705533e+002;5.024294e+001
4.724818e+002;5.011680e+001
4.744103e+002;4.989948e+001
4.763388e+002;4.970371e+001
4.782673e+002;4.955577e+001
4.801958e+002;4.945570e+001
4.821243e+002;4.922392e+001
4.840528e+002;4.896970e+001
4.859813e+002;4.884336e+001
4.879098e+002;4.871630e+001
4.898383e+002;4.863557e+001
4.917668e+002;4.861897e+001
4.936953e+002;4.853569e+001
4.956238e+002;4.842152e+001
4.975523e+002;4.823709e+001
4.994808e+002;4.817199e+001
5.014093e+002;4.804376e+001
5.033378e+002;4.782924e+001
5.052663e+002;4.757853e+001
5.071948e+002;4.729800e+001
5.091233e+002;4.687395e+001
5.110518e+002;4.627209e+001
5.129803e+002;4.569299e+001
5.149088e+002;4.580807e+001
5.168373e+002;4.646937e+001
5.187657e+002;4.708776e+001
5.206943e+002;4.738564e+001
5.226227e+002;4.748582e+001
5.245513e+002;4.748640e+001
5.264797e+002;4.749221e+001
5.284083e+002;4.749110e+001
5.303367e+002;4.743254e+001
5.322653e+002;4.732817e+001
5.341937e+002;4.722820e+001
5.361223e+002;4.710837e+001
5.380507e+002;4.692721e+001
5.399792e+002;4.671999e+001
5.419077e+002;4.654433e+001
5.438362e+002;4.631904e+001
5.457647e+002;4.605003e+001
5.476932e+002;4.579708e+001
5.496217e+002;4.550407e+001
5.515502e+002;4.521478e+001
5.534787e+002;4.493188e+001
5.554072e+002;4.461735e+001
5.573357e+002;4.432767e+001
5.592642e+002;4.401778e+001
5.611927e+002;4.370107e+001
5.631212e+002;4.332450e+001
5.650497e+002;4.294936e+001
5.669782e+002;4.264786e+001
5.689067e+002;4.258237e+001
5.708352e+002;4.268497e+001
5.727637e+002;4.265207e+001
5.746922e+002;4.247819e+001
5.766207e+002;4.220826e+001
5.785492e+002;4.178620e+001
5.804777e+002;4.126368e+001
5.824062e+002;4.069658e+001
5.843347e+002;4.009729e+001
5.862632e+002;3.940151e+001
5.881917e+002;3.861069e+001
5.901202e+002;3.771201e+001
5.920486e+002;3.669365e+001
5.939772e+002;3.552499e+001
5.959056e+002;3.428451e+001
5.978342e+002;3.290999e+001
5.997626e+002;3.128473e+001
6.016912e+002;2.946045e+001
6.036196e+002;2.803354e+001
6.055482e+002;2.699489e+001
6.074766e+002;2.598783e+001
6.094052e+002;2.515144e+001
6.113336e+002;2.495587e+001
6.132621e+002;2.531992e+001
6.151906e+002;2.553592e+001
6.171191e+002;2.552896e+001
6.190476e+002;2.553433e+001
6.209761e+002;2.568088e+001
6.229046e+002;2.658911e+001
6.248331e+002;2.865790e+001
6.267616e+002;3.134198e+001
6.286901e+002;3.399362e+001
6.306186e+002;3.586548e+001
6.325471e+002;3.671031e+001
6.344756e+002;3.696289e+001
6.364041e+002;3.705751e+001
6.383326e+002;3.714939e+001
6.402611e+002;3.725137e+001
6.421896e+002;3.739790e+001
6.441181e+002;3.758577e+001
6.460466e+002;3.778409e+001
6.479751e+002;3.798058e+001
6.499036e+002;3.817181e+001
6.518321e+002;3.838282e+001
6.537606e+002;3.863407e+001
6.556891e+002;3.889505e+001
6.576176e+002;3.917495e+001
6.595461e+002;3.948788e+001
6.614745e+002;3.982040e+001
6.634031e+002;4.016277e+001
6.653315e+002;4.051091e+001
6.672601e+002;4.086093e+001
6.691885e+002;4.123228e+001
6.711171e+002;4.161490e+001
6.730455e+002;4.200200e+001
6.749741e+002;4.239269e+001
6.769025e+002;4.278855e+001
6.788311e+002;4.317334e+001
6.807595e+002;4.355304e+001
6.826880e+002;4.392415e+001
6.846165e+002;4.429274e+001
6.865450e+002;4.465805e+001
6.884735e+002;4.503972e+001
6.904020e+002;4.544747e+001
6.923305e+002;4.586881e+001
6.942590e+002;4.627539e+001
6.961875e+002;4.671036e+001
6.981160e+002;4.715739e+001
7.000445e+002;4.754493e+001
7.019730e+002;4.784271e+001
7.039015e+002;4.805187e+001
7.058300e+002;4.818824e+001
7.077585e+002;4.824998e+001
7.096870e+002;4.818346e+001
7.116155e+002;4.798610e+001
7.135440e+002;4.764815e+001
7.154725e+002;4.725703e+001
7.174010e+002;4.694804e+001
7.193295e+002;4.673437e+001
7.212580e+002;4.653717e+001
7.231865e+002;4.634578e+001
7.251150e+002;4.614204e+001
7.270435e+002;4.594681e+001
7.289720e+002;4.578202e+001
7.309005e+002;4.561237e+001
7.328290e+002;4.541870e+001
7.347574e+002;4.524184e+001
7.366860e+002;4.509301e+001
7.386144e+002;4.502963e+001
7.405430e+002;4.518288e+001
7.424714e+002;4.554356e+001
7.444000e+002;4.592250e+001
7.463284e+002;4.622640e+001
7.482570e+002;4.644591e+001
7.501854e+002;4.661631e+001
7.521140e+002;4.675141e+001
7.540424e+002;4.686360e+001
7.559709e+002;4.696073e+001
7.578994e+002;4.706235e+001
7.598279e+002;4.714965e+001
7.617564e+002;4.720570e+001
7.636849e+002;4.723903e+001
7.656134e+002;4.727060e+001
7.675419e+002;4.730069e+001
7.694704e+002;4.733376e+001
7.713989e+002;4.736052e+001
7.733274e+002;4.739108e+001
7.752559e+002;4.741913e+001
7.771844e+002;4.743601e+001
7.791129e+002;4.743924e+001
7.810414e+002;4.744476e+001
7.829699e+002;4.746581e+001
7.848984e+002;4.750337e+001
7.868269e+002;4.752586e+001
7.887554e+002;4.754308e+001
7.906839e+002;4.756419e+001
7.926124e+002;4.760898e+001
7.945409e+002;4.770440e+001
7.964694e+002;4.790542e+001
7.983979e+002;4.819064e+001
8.003264e+002;4.834024e+001
8.022549e+002;4.822972e+001
8.041833e+002;4.799724e+001
8.061119e+002;4.775259e+001
8.080403e+002;4.753162e+001
8.099689e+002;4.735240e+001
8.118973e+002;4.720885e+001
8.138259e+002;4.707066e+001
8.157543e+002;4.695599e+001
8.176829e+002;4.688959e+001
8.196113e+002;4.688506e+001
8.215399e+002;4.694421e+001
8.234683e+002;4.704870e+001
8.253969e+002;4.719006e+001
8.273253e+002;4.737991e+001
8.292538e+002;4.759695e+001
8.311823e+002;4.778891e+001
8.331108e+002;4.791318e+001
8.350393e+002;4.797158e+001
8.369678e+002;4.796804e+001
8.388963e+002;4.793114e+001
8.408248e+002;4.787019e+001
8.427533e+002;4.778124e+001
8.446818e+002;4.768406e+001
8.466103e+002;4.759852e+001
8.485388e+002;4.752437e+001
8.504673e+002;4.744794e+001
8.523958e+002;4.735573e+001
8.543243e+002;4.725351e+001
8.562528e+002;4.711674e+001
8.581813e+002;4.693237e+001
8.601098e+002;4.669437e+001
8.620383e+002;4.642739e+001
8.639668e+002;4.619818e+001
8.658953e+002;4.601932e+001
8.678238e+002;4.586103e+001
8.697523e+002;4.569938e+001
8.716808e+002;4.553383e+001
8.736093e+002;4.536337e+001
8.755378e+002;4.519051e+001
8.774662e+002;4.504311e+001
8.793948e+002;4.492562e+001
8.813232e+002;4.484063e+001
8.832518e+002;4.478578e+001
8.851802e+002;4.475539e+001
8.871088e+002;4.475058e+001
8.890372e+002;4.477986e+001
8.909658e+002;4.483119e+001
8.928942e+002;4.490199e+001
8.948227e+002;4.500314e+001
8.967512e+002;4.511781e+001
8.986797e+002;4.524224e+001
9.006082e+002;4.537200e+001
9.025367e+002;4.548832e+001
9.044652e+002;4.560896e+001
9.063937e+002;4.574504e+001
9.083222e+002;4.589357e+001
9.102507e+002;4.606415e+001
9.121792e+002;4.626444e+001
9.141077e+002;4.645111e+001
9.160362e+002;4.660458e+001
9.179647e+002;4.674611e+001
9.198932e+002;4.687220e+001
9.218217e+002;4.697596e+001
9.237502e+002;4.707027e+001
9.256786e+002;4.716302e+001
9.276072e+002;4.724564e+001
9.295356e+002;4.730690e+001
9.314642e+002;4.735686e+001
9.333926e+002;4.740724e+001
9.353212e+002;4.745945e+001
9.372496e+002;4.750227e+001
9.391782e+002;4.753801e+001
9.411066e+002;4.755188e+001
9.430352e+002;4.753588e+001
9.449636e+002;4.749590e+001
9.468922e+002;4.744957e+001
9.488206e+002;4.740419e+001
9.507491e+002;4.736117e+001
9.526776e+002;4.731536e+001
9.546061e+002;4.726968e+001
9.565346e+002;4.722688e+001
9.584631e+002;4.718830e+001
9.603916e+002;4.716187e+001
9.623201e+002;4.715528e+001
9.642486e+002;4.716198e+001
9.661771e+002;4.717799e+001
9.681056e+002;4.719777e+001
9.700341e+002;4.721254e+001
9.719626e+002;4.724069e+001
9.738911e+002;4.729129e+001
9.758196e+002;4.735309e+001
9.777481e+002;4.742627e+001
9.796766e+002;4.750954e+001
9.816051e+002;4.759194e+001
9.835336e+002;4.767175e+001
9.854621e+002;4.775447e+001
9.873906e+002;4.784653e+001
9.893191e+002;4.794847e+001
9.912476e+002;4.805235e+001
9.931761e+002;4.814156e+001
9.951046e+002;4.821877e+001
9.970331e+002;4.828612e+001
9.989615e+002;4.834185e+001
1.000890e+003;4.839784e+001
1.002819e+003;4.845625e+001
1.004747e+003;4.851221e+001
1.006676e+003;4.856696e+001
1.008604e+003;4.860806e+001
1.010533e+003;4.862914e+001
1.012461e+003;4.865458e+001
1.014390e+003;4.869312e+001
1.016318e+003;4.874327e+001
1.018247e+003;4.879700e+001
1.020175e+003;4.883843e+001
1.022104e+003;4.886639e+001
1.024032e+003;4.888593e+001
1.025961e+003;4.889742e+001
1.027889e+003;4.890959e+001
1.029818e+003;4.892645e+001
1.031746e+003;4.894244e+001
1.033675e+003;4.895832e+001
1.035603e+003;4.896723e+001
1.037531e+003;4.895453e+001
1.039460e+003;4.893164e+001
1.041389e+003;4.890807e+001
1.043317e+003;4.888253e+001
1.045245e+003;4.885814e+001
1.047174e+003;4.882723e+001
1.049103e+003;4.878255e+001
1.051031e+003;4.872818e+001
1.052959e+003;4.866802e+001
1.054888e+003;4.860364e+001
1.056817e+003;4.853839e+001
1.058745e+003;4.846838e+001
1.060673e+003;4.838836e+001
1.062602e+003;4.829816e+001
1.064531e+003;4.819266e+001
1.066459e+003;4.807001e+001
1.068387e+003;4.792707e+001
1.070316e+003;4.776241e+001
1.072245e+003;4.757227e+001
1.074173e+003;4.734875e+001
1.076101e+003;4.708308e+001
1.078030e+003;4.676670e+001
1.079958e+003;4.640193e+001
1.081887e+003;4.598326e+001
1.083815e+003;4.551250e+001
1.085744e+003;4.498260e+001
1.087672e+003;4.438483e+001
1.089601e+003;4.373302e+001
1.091529e+003;4.303093e+001
1.093458e+003;4.230132e+001
1.095386e+003;4.158011e+001
1.097315e+003;4.089845e+001
1.099243e+003;4.028899e+001
1.101172e+003;3.977982e+001
1.103100e+003;3.938354e+001
1.105029e+003;3.911644e+001
1.106957e+003;3.898760e+001
1.108886e+003;3.899018e+001
1.110814e+003;3.912365e+001
1.112743e+003;3.939019e+001
1.114671e+003;3.978008e+001
1.116600e+003;4.028269e+001
1.118528e+003;4.088144e+001
1.120457e+003;4.154377e+001
1.122385e+003;4.225387e+001
1.124314e+003;4.299498e+001
1.126242e+003;4.373122e+001
1.128171e+003;4.442274e+001
1.130099e+003;4.502816e+001
1.132028e+003;4.551748e+001
1.133956e+003;4.589645e+001
1.135885e+003;4.618673e+001
1.137813e+003;4.641164e+001
1.139742e+003;4.659130e+001
1.141670e+003;4.673780e+001
1.143599e+003;4.684731e+001
1.145527e+003;4.693265e+001
1.147456e+003;4.699982e+001
1.149384e+003;4.705286e+001
1.151313e+003;4.710319e+001
1.153241e+003;4.714841e+001
1.155170e+003;4.718741e+001
1.157098e+003;4.721668e+001
1.159027e+003;4.723496e+001
1.160955e+003;4.724583e+001
1.162884e+003;4.725977e+001
1.164812e+003;4.727648e+001
1.166741e+003;4.729647e+001
1.168669e+003;4.732241e+001
1.170598e+003;4.733996e+001
1.172526e+003;4.735011e+001
1.174455e+003;4.735849e+001
1.176383e+003;4.736857e+001
1.178312e+003;4.737754e+001
1.180240e+003;4.740628e+001
1.182169e+003;4.743673e+001
1.184097e+003;4.744485e+001
1.186026e+003;4.746252e+001
1.187954e+003;4.747072e+001
1.189883e+003;4.748687e+001
1.191811e+003;4.750742e+001
1.193740e+003;4.753226e+001
1.195668e+003;4.755679e+001
1.197597e+003;4.757722e+001
1.199525e+003;4.758595e+001
1.201454e+003;4.759325e+001
1.203382e+003;4.759910e+001
1.205311e+003;4.760691e+001
1.207239e+003;4.761838e+001
1.209168e+003;4.762608e+001
1.211096e+003;4.762092e+001
1.213025e+003;4.761141e+001
1.214953e+003;4.759253e+001
1.216882e+003;4.756870e+001
1.218810e+003;4.754717e+001
1.220739e+003;4.752552e+001
1.222667e+003;4.750041e+001
1.224596e+003;4.747484e+001
1.226524e+003;4.744579e+001
1.228453e+003;4.742032e+001
1.230381e+003;4.740227e+001
1.232310e+003;4.738972e+001
1.234238e+003;4.737913e+001
1.236167e+003;4.736883e+001
1.238095e+003;4.734685e+001
1.240024e+003;4.731791e+001
1.241952e+003;4.728724e+001
1.243881e+003;4.725468e+001
1.245809e+003;4.722552e+001
1.247738e+003;4.720104e+001
1.249666e+003;4.716936e+001
1.251595e+003;4.713335e+001
1.253523e+003;4.709472e+001
1.255452e+003;4.704928e+001
1.257380e+003;4.700511e+001
1.259309e+003;4.696771e+001
1.261237e+003;4.692820e+001
1.263166e+003;4.689009e+001
1.265094e+003;4.684876e+001
1.267023e+003;4.680042e+001
1.268951e+003;4.675354e+001
1.270880e+003;4.670897e+001
1.272808e+003;4.666491e+001
1.274737e+003;4.662563e+001
1.276665e+003;4.658263e+001
1.278594e+003;4.653276e+001
1.280522e+003;4.648352e+001
1.282451e+003;4.643317e+001
1.284379e+003;4.638324e+001
1.286308e+003;4.634384e+001
1.288236e+003;4.630787e+001
1.290165e+003;4.627251e+001
1.292093e+003;4.623845e+001
1.294022e+003;4.620115e+001
1.295950e+003;4.616520e+001
1.297879e+003;4.613993e+001
1.299807e+003;4.612093e+001
1.301736e+003;4.610907e+001
1.303664e+003;4.610026e+001
1.305593e+003;4.608639e+001
1.307521e+003;4.607259e+001
1.309450e+003;4.606392e+001
1.311378e+003;4.605840e+001
1.313307e+003;4.606081e+001
1.315235e+003;4.606869e+001
1.317164e+003;4.607501e+001
1.319092e+003;4.608012e+001
1.321021e+003;4.608358e+001
1.322949e+003;4.608469e+001
1.324878e+003;4.609036e+001
1.326806e+003;4.610055e+001
1.328735e+003;4.611102e+001
1.330663e+003;4.611839e+001
1.332592e+003;4.611977e+001
1.334520e+003;4.611303e+001
1.336449e+003;4.610573e+001
1.338377e+003;4.609903e+001
1.340306e+003;4.609460e+001
1.342234e+003;4.608905e+001
1.344163e+003;4.607733e+001
1.346091e+003;4.605651e+001
1.348020e+003;4.603117e+001
1.349948e+003;4.600331e+001
1.351877e+003;4.597618e+001
1.353805e+003;4.595092e+001
1.355734e+003;4.592662e+001
1.357662e+003;4.589922e+001
1.359591e+003;4.586749e+001
1.361519e+003;4.583206e+001
1.363448e+003;4.579980e+001
1.365376e+003;4.577485e+001
1.367305e+003;4.575456e+001
1.369233e+003;4.573348e+001
1.371161e+003;4.571501e+001
1.373090e+003;4.569233e+001
1.375019e+003;4.566490e+001
1.376947e+003;4.564188e+001
1.378875e+003;4.562637e+001
1.380804e+003;4.561255e+001
1.382733e+003;4.560089e+001
1.384661e+003;4.558947e+001
1.386589e+003;4.557399e+001
1.388518e+003;4.555505e+001
1.390447e+003;4.553518e+001
1.392375e+003;4.551634e+001
1.394303e+003;4.550236e+001
1.396232e+003;4.549699e+001
1.398161e+003;4.548458e+001
1.400089e+003;4.546702e+001
1.402017e+003;4.544550e+001
1.403946e+003;4.542218e+001
1.405875e+003;4.540579e+001
1.407803e+003;4.538898e+001
1.409731e+003;4.536897e+001
1.411660e+003;4.534575e+001
1.413589e+003;4.531263e+001
1.415517e+003;4.527629e+001
1.417445e+003;4.523074e+001
1.419374e+003;4.518031e+001
1.421302e+003;4.516018e+001
1.423231e+003;4.513308e+001
1.425159e+003;4.508535e+001
1.427088e+003;4.503481e+001
1.429016e+003;4.498112e+001
1.430945e+003;4.492427e+001
1.432873e+003;4.487657e+001
1.434802e+003;4.482415e+001
1.436730e+003;4.477099e+001
1.438659e+003;4.473195e+001
1.440587e+003;4.468795e+001
1.442516e+003;4.464281e+001
1.444444e+003;4.461271e+001
1.446373e+003;4.458890e+001
1.448301e+003;4.457515e+001
1.450230e+003;4.457670e+001
1.452158e+003;4.457952e+001
1.454087e+003;4.458918e+001
1.456015e+003;4.461900e+001
1.457944e+003;4.463881e+001
1.459872e+003;4.466802e+001
1.461801e+003;4.471516e+001
1.463729e+003;4.475438e+001
1.465658e+003;4.479306e+001
1.467586e+003;4.482988e+001
1.469515e+003;4.485635e+001
1.471443e+003;4.488359e+001
1.473372e+003;4.492922e+001
1.475300e+003;4.496590e+001
1.477229e+003;4.499399e+001
1.479157e+003;4.501885e+001
1.481086e+003;4.503504e+001
1.483014e+003;4.505499e+001
1.484943e+003;4.507456e+001
1.486871e+003;4.508968e+001
1.488800e+003;4.510820e+001
1.490728e+003;4.512335e+001
1.492657e+003;4.512693e+001
1.494585e+003;4.513727e+001
1.496514e+003;4.514145e+001
1.498442e+003;4.513668e+001
1.500371e+003;4.513850e+001
1.502299e+003;4.513496e+001
1.504228e+003;4.511519e+001
1.506156e+003;4.511428e+001
1.508085e+003;4.511464e+001
1.510013e+003;4.510118e+001
1.511942e+003;4.510002e+001
1.513870e+003;4.508644e+001
1.515799e+003;4.507136e+001
1.517727e+003;4.506315e+001
1.519656e+003;4.505387e+001
1.521584e+003;4.503422e+001
1.523513e+003;4.501229e+001
1.525441e+003;4.498934e+001
1.527370e+003;4.498499e+001
1.529298e+003;4.498243e+001
1.531227e+003;4.496193e+001
1.533155e+003;4.493716e+001
1.535084e+003;4.492439e+001
1.537012e+003;4.489180e+001
1.538941e+003;4.486584e+001
1.540869e+003;4.486237e+001
1.542798e+003;4.484912e+001
1.544726e+003;4.484577e+001
1.546655e+003;4.483091e+001
1.548583e+003;4.480563e+001
1.550512e+003;4.478948e+001
1.552440e+003;4.477998e+001
1.554369e+003;4.476744e+001
1.556297e+003;4.474395e+001
1.558226e+003;4.470662e+001
1.560154e+003;4.470367e+001
1.562083e+003;4.469660e+001
1.564011e+003;4.467032e+001
1.565940e+003;4.465331e+001
1.567868e+003;4.463908e+001
1.569797e+003;4.461233e+001
1.571725e+003;4.460381e+001
1.573654e+003;4.459495e+001
1.575582e+003;4.457048e+001
1.577511e+003;4.455165e+001
1.579439e+003;4.453907e+001
1.581368e+003;4.452054e+001
1.583296e+003;4.450904e+001
1.585225e+003;4.449462e+001
1.587153e+003;4.446891e+001
1.589082e+003;4.445393e+001
1.591010e+003;4.443926e+001
1.592939e+003;4.441770e+001
1.594867e+003;4.440977e+001
1.596796e+003;4.439705e+001
1.598724e+003;4.437486e+001
1.600653e+003;4.436174e+001
1.602581e+003;4.434092e+001
1.604510e+003;4.431797e+001
1.606438e+003;4.431157e+001
1.608367e+003;4.429667e+001
1.610295e+003;4.427964e+001
1.612224e+003;4.426916e+001
1.614152e+003;4.423941e+001
1.616081e+003;4.420031e+001
1.618009e+003;4.419751e+001
1.619938e+003;4.419299e+001
1.621866e+003;4.418213e+001
1.623795e+003;4.417535e+001
1.625723e+003;4.414881e+001
1.627652e+003;4.412771e+001
1.629580e+003;4.411815e+001
1.631509e+003;4.410023e+001
1.633437e+003;4.409269e+001
1.635366e+003;4.408368e+001
1.637294e+003;4.406297e+001
1.639223e+003;4.405231e+001
1.641151e+003;4.403597e+001
1.643080e+003;4.401387e+001
1.645008e+003;4.400817e+001
1.646937e+003;4.399319e+001
1.648865e+003;4.397255e+001
1.650794e+003;4.395471e+001
1.652722e+003;4.391338e+001
1.654651e+003;4.390979e+001
1.656579e+003;4.391822e+001
1.658508e+003;4.390144e+001
1.660436e+003;4.388538e+001
1.662365e+003;4.388324e+001
1.664293e+003;4.386371e+001
1.666222e+003;4.384074e+001
1.668150e+003;4.382446e+001
1.670079e+003;4.380234e+001
1.672007e+003;4.379419e+001
1.673936e+003;4.377869e+001
1.675864e+003;4.375706e+001
1.677793e+003;4.375553e+001
1.679721e+003;4.374664e+001
1.681650e+003;4.371800e+001
1.683578e+003;4.370486e+001
1.685507e+003;4.370269e+001
1.687435e+003;4.367953e+001
1.689364e+003;4.366700e+001
1.691292e+003;4.365075e+001
1.693221e+003;4.362260e+001
1.695149e+003;4.360847e+001
1.697078e+003;4.358572e+001
1.699006e+003;4.353770e+001
1.700935e+003;4.352030e+001
1.702863e+003;4.352020e+001
1.704792e+003;4.349377e+001
1.706720e+003;4.347039e+001
1.708649e+003;4.344161e+001
1.710577e+003;4.341257e+001
1.712505e+003;4.339544e+001
1.714434e+003;4.336624e+001
1.716363e+003;4.333036e+001
1.718291e+003;4.331973e+001
1.720219e+003;4.330753e+001
1.722148e+003;4.329150e+001
1.724077e+003;4.328701e+001
1.726005e+003;4.327383e+001
1.727933e+003;4.327030e+001
1.729862e+003;4.327039e+001
1.731791e+003;4.325015e+001
1.733719e+003;4.323874e+001
1.735647e+003;4.324849e+001
1.737576e+003;4.323906e+001
1.739505e+003;4.323471e+001
1.741433e+003;4.323511e+001
1.743361e+003;4.322245e+001
1.745290e+003;4.321291e+001
1.747219e+003;4.320045e+001
1.749147e+003;4.318021e+001
1.751075e+003;4.317255e+001
1.753004e+003;4.316038e+001
1.754932e+003;4.314317e+001
1.756861e+003;4.313443e+001
1.758789e+003;4.311467e+001
1.760718e+003;4.308662e+001
1.762646e+003;4.307887e+001
1.764575e+003;4.306715e+001
1.766503e+003;4.305243e+001
1.768432e+003;4.304549e+001
1.770360e+003;4.302026e+001
1.772289e+003;4.298865e+001
1.774217e+003;4.298305e+001
1.776146e+003;4.296913e+001
1.778074e+003;4.295541e+001
1.780003e+003;4.294738e+001
1.781931e+003;4.292793e+001
1.783860e+003;4.291474e+001
1.785788e+003;4.290171e+001
1.787717e+003;4.287569e+001
1.789645e+003;4.286333e+001
1.791574e+003;4.284908e+001
1.793502e+003;4.282869e+001
1.795431e+003;4.282283e+001
1.797359e+003;4.280886e+001
1.799288e+003;4.278453e+001
1.801216e+003;4.277223e+001
1.803145e+003;4.275581e+001
1.805073e+003;4.273693e+001
1.807002e+003;4.273111e+001
1.808930e+003;4.271452e+001
1.810859e+003;4.269240e+001
1.812787e+003;4.268297e+001
1.814716e+003;4.266251e+001
1.816644e+003;4.264346e+001
1.818573e+003;4.263796e+001
1.820501e+003;4.261918e+001
1.822430e+003;4.259961e+001
1.824358e+003;4.258737e+001
1.826287e+003;4.256345e+001
1.828215e+003;4.254827e+001
1.830144e+003;4.254056e+001
1.832072e+003;4.251970e+001
1.834001e+003;4.250676e+001
1.835929e+003;4.249623e+001
1.837858e+003;4.246996e+001
1.839786e+003;4.245578e+001
1.841715e+003;4.244223e+001
1.843643e+003;4.241617e+001
1.845572e+003;4.240777e+001
1.847500e+003;4.239787e+001
1.849429e+003;4.237389e+001
1.851357e+003;4.236272e+001
1.853286e+003;4.234436e+001
1.855214e+003;4.232087e+001
1.857143e+003;4.231402e+001
1.859071e+003;4.229764e+001
1.861000e+003;4.227430e+001
1.862928e+003;4.226578e+001
1.864857e+003;4.224380e+001
1.866785e+003;4.222017e+001
1.868714e+003;4.220984e+001
1.870642e+003;4.218887e+001
1.872571e+003;4.217146e+001
1.874499e+003;4.216349e+001
1.876428e+003;4.213564e+001
1.878356e+003;4.211355e+001
1.880285e+003;4.210041e+001
1.882213e+003;4.207315e+001
1.884142e+003;4.205643e+001
1.886070e+003;4.204303e+001
1.887999e+003;4.200984e+001
1.889927e+003;4.199036e+001
1.891856e+003;4.197167e+001
1.893784e+003;4.193563e+001
1.895713e+003;4.191538e+001
1.897641e+003;4.189372e+001
1.899570e+003;4.185828e+001
1.901498e+003;4.183694e+001
1.903427e+003;4.180347e+001
1.905355e+003;4.175942e+001
1.907284e+003;4.173354e+001
1.909212e+003;4.169555e+001
1.911141e+003;4.164941e+001
1.913069e+003;4.161782e+001
1.914998e+003;4.156788e+001
1.916926e+003;4.151332e+001
1.918855e+003;4.147014e+001
1.920783e+003;4.140731e+001
1.922712e+003;4.134666e+001
1.924640e+003;4.129935e+001
1.926569e+003;4.122725e+001
1.928497e+003;4.115570e+001
1.930426e+003;4.108834e+001
1.932354e+003;4.100040e+001
1.934283e+003;4.092006e+001
1.936211e+003;4.084248e+001
1.938140e+003;4.074216e+001
1.940068e+003;4.065317e+001
1.941997e+003;4.055944e+001
1.943925e+003;4.044461e+001
1.945854e+003;4.034364e+001
1.947782e+003;4.023779e+001
1.949711e+003;4.011664e+001
1.951639e+003;4.001179e+001
1.953568e+003;3.989336e+001
1.955496e+003;3.976072e+001
1.957425e+003;3.964580e+001
1.959353e+003;3.951878e+001
1.961282e+003;3.938473e+001
1.963210e+003;3.927157e+001
1.965139e+003;3.914190e+001
1.967067e+003;3.900885e+001
1.968996e+003;3.889282e+001
1.970924e+003;3.875866e+001
1.972853e+003;3.863048e+001
1.974781e+003;3.852242e+001
1.976710e+003;3.839476e+001
1.978638e+003;3.827821e+001
1.980567e+003;3.817600e+001
1.982495e+003;3.805696e+001
1.984424e+003;3.795549e+001
1.986352e+003;3.786601e+001
1.988281e+003;3.776198e+001
1.990209e+003;3.768423e+001
1.992138e+003;3.761479e+001
1.994066e+003;3.753106e+001
1.995995e+003;3.747332e+001
1.997923e+003;3.742000e+001
1.999852e+003;3.735770e+001
2.001780e+003;3.732730e+001
2.003709e+003;3.729392e+001
2.005637e+003;3.725552e+001
2.007566e+003;3.724774e+001
2.009494e+003;3.723229e+001
2.011423e+003;3.721369e+001
2.013351e+003;3.722531e+001
2.015280e+003;3.722506e+001
2.017208e+003;3.722744e+001
2.019137e+003;3.725275e+001
2.021065e+003;3.725979e+001
2.022994e+003;3.727186e+001
2.024922e+003;3.730630e+001
2.026851e+003;3.731916e+001
2.028779e+003;3.734187e+001
2.030708e+003;3.737866e+001
2.032636e+003;3.739262e+001
2.034565e+003;3.741892e+001
2.036493e+003;3.745228e+001
2.038422e+003;3.746050e+001
2.040350e+003;3.748920e+001
2.042279e+003;3.752085e+001
2.044207e+003;3.752789e+001
2.046135e+003;3.755298e+001
2.048064e+003;3.757400e+001
2.049992e+003;3.757637e+001
2.051921e+003;3.760175e+001
2.053850e+003;3.761573e+001
2.055778e+003;3.761649e+001
2.057707e+003;3.764257e+001
2.059635e+003;3.765250e+001
2.061563e+003;3.764951e+001
2.063492e+003;3.767175e+001
2.065420e+003;3.767783e+001
2.067349e+003;3.768272e+001
2.069278e+003;3.770959e+001
2.071206e+003;3.771426e+001
2.073135e+003;3.772360e+001
2.075063e+003;3.775496e+001
2.076991e+003;3.776164e+001
2.078920e+003;3.778070e+001
2.080848e+003;3.781945e+001
2.082777e+003;3.783667e+001
2.084706e+003;3.786964e+001
2.086634e+003;3.791323e+001
2.088563e+003;3.793370e+001
2.090491e+003;3.797995e+001
2.092419e+003;3.803311e+001
2.094348e+003;3.806672e+001
2.096276e+003;3.812487e+001
2.098205e+003;3.818336e+001
2.100134e+003;3.822523e+001
2.102062e+003;3.829402e+001
2.103990e+003;3.835409e+001
2.105919e+003;3.840425e+001
2.107847e+003;3.848335e+001
2.109776e+003;3.854750e+001
2.111704e+003;3.860090e+001
2.113633e+003;3.868132e+001
2.115562e+003;3.874084e+001
2.117490e+003;3.879763e+001
2.119418e+003;3.887695e+001
2.121347e+003;3.893276e+001
2.123275e+003;3.899142e+001
2.125204e+003;3.906871e+001
2.127132e+003;3.911478e+001
2.129061e+003;3.916902e+001
2.130990e+003;3.923663e+001
2.132918e+003;3.927820e+001
2.134846e+003;3.933309e+001
2.136775e+003;3.939295e+001
2.138703e+003;3.942336e+001
2.140632e+003;3.947342e+001
2.142560e+003;3.952245e+001
2.144489e+003;3.954536e+001
2.146417e+003;3.958918e+001
2.148346e+003;3.962966e+001
2.150274e+003;3.964687e+001
2.152203e+003;3.968410e+001
2.154131e+003;3.970808e+001
2.156060e+003;3.971748e+001
2.157988e+003;3.975143e+001
2.159917e+003;3.976774e+001
2.161845e+003;3.977201e+001
2.163774e+003;3.979917e+001
2.165702e+003;3.980318e+001
2.167631e+003;3.980290e+001
2.169559e+003;3.982265e+001
2.171488e+003;3.981878e+001
2.173416e+003;3.981796e+001
2.175345e+003;3.983568e+001
2.177273e+003;3.982338e+001
2.179202e+003;3.981863e+001
2.181130e+003;3.982600e+001
2.183059e+003;3.980945e+001
2.184987e+003;3.980766e+001
2.186916e+003;3.981224e+001
2.188844e+003;3.979018e+001
2.190773e+003;3.978767e+001
2.192701e+003;3.978570e+001
2.194630e+003;3.976015e+001
2.196558e+003;3.975697e+001
2.198487e+003;3.975227e+001
2.200415e+003;3.972708e+001
2.202344e+003;3.972447e+001
2.204272e+003;3.971162e+001
2.206201e+003;3.968471e+001
2.208129e+003;3.968186e+001
2.210058e+003;3.966734e+001
2.211986e+003;3.964089e+001
2.213915e+003;3.963761e+001
2.215843e+003;3.961743e+001
2.217772e+003;3.959250e+001
2.219700e+003;3.958704e+001
2.221629e+003;3.956218e+001
2.223557e+003;3.953899e+001
2.225486e+003;3.953694e+001
2.227414e+003;3.950979e+001
2.229343e+003;3.948612e+001
2.231271e+003;3.947925e+001
2.233200e+003;3.944912e+001
2.235128e+003;3.942982e+001
2.237057e+003;3.942369e+001
2.238985e+003;3.938989e+001
2.240914e+003;3.937426e+001
2.242842e+003;3.936594e+001
2.244771e+003;3.932954e+001
2.246699e+003;3.931470e+001
2.248628e+003;3.930473e+001
2.250556e+003;3.926971e+001
2.252485e+003;3.926045e+001
2.254413e+003;3.924471e+001
2.256342e+003;3.920805e+001
2.258270e+003;3.920116e+001
2.260199e+003;3.918265e+001
2.262127e+003;3.914645e+001
2.264056e+003;3.914439e+001
2.265984e+003;3.912334e+001
2.267913e+003;3.909218e+001
2.269841e+003;3.908883e+001
2.271770e+003;3.906104e+001
2.273698e+003;3.903170e+001
2.275627e+003;3.903278e+001
2.277555e+003;3.900284e+001
2.279484e+003;3.897803e+001
2.281412e+003;3.897608e+001
2.283341e+003;3.894289e+001
2.285269e+003;3.892260e+001
2.287198e+003;3.891903e+001
2.289126e+003;3.888197e+001
2.291055e+003;3.886821e+001
2.292983e+003;3.886399e+001
2.294912e+003;3.882562e+001
2.296840e+003;3.881280e+001
2.298769e+003;3.880346e+001
2.300697e+003;3.876516e+001
2.302626e+003;3.875886e+001
2.304554e+003;3.874455e+001
2.306483e+003;3.870619e+001
2.308411e+003;3.870270e+001
2.310340e+003;3.868478e+001
2.312268e+003;3.864643e+001
2.314197e+003;3.864660e+001
2.316125e+003;3.862491e+001
2.318054e+003;3.859238e+001
2.319982e+003;3.859313e+001
2.321911e+003;3.856372e+001
2.323839e+003;3.853133e+001
2.325768e+003;3.853423e+001
2.327696e+003;3.850294e+001
2.329625e+003;3.847632e+001
2.331553e+003;3.847778e+001
2.333482e+003;3.844352e+001
2.335410e+003;3.842123e+001
2.337339e+003;3.842026e+001
2.339267e+003;3.838108e+001
2.341196e+003;3.836739e+001
2.343124e+003;3.836412e+001
2.345053e+003;3.832480e+001
2.346981e+003;3.831330e+001
2.348910e+003;3.830529e+001
2.350838e+003;3.826588e+001
2.352767e+003;3.826054e+001
2.354695e+003;3.824760e+001
2.356624e+003;3.820951e+001
2.358552e+003;3.820795e+001
2.360481e+003;3.819161e+001
2.362409e+003;3.815158e+001
2.364338e+003;3.814882e+001
2.366266e+003;3.812624e+001
2.368195e+003;3.809392e+001
2.370123e+003;3.809494e+001
2.372052e+003;3.806602e+001
2.373980e+003;3.803514e+001
2.375908e+003;3.803857e+001
2.377837e+003;3.800628e+001
2.379766e+003;3.798125e+001
2.381694e+003;3.798337e+001
2.383623e+003;3.794812e+001
2.385551e+003;3.792688e+001
2.387479e+003;3.792560e+001
2.389408e+003;3.788529e+001
2.391336e+003;3.787067e+001
2.393265e+003;3.786841e+001
2.395194e+003;3.782875e+001
2.397122e+003;3.781615e+001
2.399051e+003;3.780777e+001
2.400979e+003;3.776690e+001
2.402907e+003;3.776160e+001
2.404836e+003;3.774842e+001
2.406764e+003;3.770917e+001
2.408693e+003;3.770827e+001
2.410622e+003;3.769078e+001
2.412550e+003;3.765042e+001
2.414479e+003;3.764996e+001
2.416407e+003;3.762753e+001
2.418335e+003;3.759488e+001
2.420264e+003;3.759731e+001
2.422192e+003;3.756902e+001
2.424121e+003;3.753857e+001
2.426050e+003;3.754183e+001
2.427978e+003;3.750814e+001
2.429906e+003;3.748296e+001
2.431835e+003;3.748401e+001
2.433763e+003;3.744795e+001
2.435692e+003;3.742784e+001
2.437620e+003;3.742721e+001
2.439549e+003;3.738550e+001
2.441478e+003;3.737130e+001
2.443406e+003;3.736853e+001
2.445334e+003;3.732779e+001
2.447263e+003;3.731699e+001
2.449191e+003;3.730904e+001
2.451120e+003;3.726812e+001
2.453048e+003;3.726358e+001
2.454977e+003;3.724881e+001
2.456906e+003;3.720968e+001
2.458834e+003;3.720991e+001
2.460762e+003;3.719076e+001
2.462691e+003;3.715100e+001
2.464619e+003;3.715248e+001
2.466548e+003;3.712774e+001
2.468476e+003;3.709487e+001
2.470405e+003;3.709823e+001
2.472333e+003;3.706849e+001
2.474262e+003;3.703991e+001
2.476190e+003;3.704440e+001
2.478119e+003;3.700836e+001
2.480047e+003;3.698425e+001
2.481976e+003;3.698525e+001
2.483904e+003;3.694816e+001
2.485833e+003;3.693176e+001
2.487761e+003;3.693045e+001
2.489690e+003;3.688660e+001
2.491618e+003;3.687619e+001
2.493547e+003;3.687227e+001
2.495475e+003;3.682932e+001
2.497404e+003;3.682157e+001
2.499332e+003;3.681264e+001
2.501261e+003;3.677196e+001
2.503189e+003;3.677064e+001
2.505118e+003;3.675311e+001
2.507046e+003;3.671362e+001
2.508975e+003;3.671688e+001
2.510903e+003;3.669596e+001
2.512832e+003;3.665724e+001
2.514760e+003;3.666236e+001
2.516689e+003;3.663667e+001
2.518617e+003;3.660460e+001
2.520546e+003;3.660944e+001
2.522474e+003;3.657750e+001
2.524403e+003;3.654994e+001
2.526331e+003;3.655640e+001
2.528260e+003;3.651881e+001
2.530188e+003;3.649592e+001
2.532117e+003;3.649792e+001
2.534045e+003;3.645756e+001
2.535974e+003;3.644199e+001
2.537902e+003;3.644176e+001
2.539831e+003;3.639633e+001
2.541759e+003;3.638776e+001
2.543688e+003;3.638403e+001
2.545616e+003;3.633771e+001
2.547545e+003;3.633205e+001
2.549473e+003;3.632465e+001
2.551402e+003;3.628011e+001
2.553330e+003;3.628076e+001
2.555259e+003;3.626480e+001
2.557187e+003;3.622165e+001
2.559116e+003;3.622719e+001
2.561044e+003;3.620733e+001
2.562973e+003;3.616682e+001
2.564901e+003;3.617520e+001
2.566830e+003;3.614729e+001
2.568758e+003;3.611182e+001
2.570687e+003;3.611951e+001
2.572615e+003;3.608493e+001
2.574544e+003;3.605589e+001
2.576472e+003;3.606853e+001
2.578401e+003;3.603003e+001
2.580329e+003;3.600479e+001
2.582258e+003;3.601081e+001
2.584186e+003;3.597000e+001
2.586115e+003;3.595322e+001
2.588043e+003;3.595678e+001
2.589972e+003;3.591030e+001
2.591900e+003;3.590098e+001
2.593829e+003;3.590165e+001
2.595757e+003;3.585412e+001
2.597686e+003;3.584755e+001
2.599614e+003;3.584370e+001
2.601543e+003;3.579815e+001
2.603471e+003;3.579817e+001
2.605400e+003;3.578502e+001
2.607328e+003;3.574075e+001
2.609257e+003;3.574567e+001
2.611185e+003;3.573001e+001
2.613114e+003;3.568715e+001
2.615042e+003;3.569247e+001
2.616971e+003;3.566836e+001
2.618899e+003;3.563245e+001
2.620828e+003;3.563969e+001
2.622756e+003;3.560926e+001
2.624685e+003;3.557819e+001
2.626613e+003;3.558871e+001
2.628542e+003;3.555266e+001
2.630470e+003;3.552593e+001
2.632399e+003;3.553189e+001
2.634327e+003;3.549405e+001
2.636256e+003;3.547555e+001
2.638184e+003;3.547912e+001
2.640113e+003;3.543623e+001
2.642041e+003;3.542424e+001
2.643970e+003;3.542382e+001
2.645898e+003;3.538023e+001
2.647827e+003;3.537145e+001
2.649755e+003;3.536606e+001
2.651684e+003;3.532377e+001
2.653612e+003;3.532272e+001
2.655541e+003;3.530988e+001
2.657469e+003;3.526839e+001
2.659398e+003;3.527034e+001
2.661326e+003;3.525418e+001
2.663255e+003;3.521612e+001
2.665183e+003;3.521965e+001
2.667112e+003;3.519569e+001
2.669040e+003;3.516446e+001
2.670969e+003;3.516830e+001
2.672897e+003;3.513778e+001
2.674826e+003;3.511000e+001
2.676754e+003;3.511743e+001
2.678683e+003;3.508401e+001
2.680611e+003;3.506188e+001
2.682540e+003;3.506397e+001
2.684468e+003;3.502744e+001
2.686397e+003;3.501125e+001
2.688325e+003;3.500986e+001
2.690254e+003;3.496914e+001
2.692182e+003;3.496227e+001
2.694111e+003;3.495827e+001
2.696039e+003;3.491784e+001
2.697968e+003;3.491264e+001
2.699896e+003;3.490187e+001
2.701825e+003;3.486356e+001
2.703753e+003;3.486667e+001
2.705682e+003;3.484827e+001
2.707610e+003;3.481067e+001
2.709539e+003;3.481713e+001
2.711467e+003;3.479557e+001
2.713396e+003;3.476023e+001
2.715324e+003;3.476741e+001
2.717253e+003;3.473995e+001
2.719181e+003;3.471375e+001
2.721110e+003;3.472093e+001
2.723038e+003;3.468465e+001
2.724967e+003;3.466168e+001
2.726895e+003;3.467194e+001
2.728823e+003;3.463280e+001
2.730752e+003;3.461499e+001
2.732681e+003;3.461966e+001
2.734609e+003;3.457981e+001
2.736538e+003;3.457047e+001
2.738466e+003;3.457235e+001
2.740395e+003;3.452704e+001
2.742323e+003;3.452436e+001
2.744251e+003;3.452235e+001
2.746180e+003;3.447800e+001
2.748109e+003;3.447708e+001
2.750037e+003;3.446882e+001
2.751966e+003;3.442738e+001
2.753894e+003;3.443590e+001
2.755823e+003;3.441894e+001
2.757751e+003;3.437826e+001
2.759679e+003;3.438971e+001
2.761608e+003;3.436930e+001
2.763537e+003;3.433020e+001
2.765465e+003;3.434176e+001
2.767394e+003;3.431529e+001
2.769322e+003;3.428603e+001
2.771250e+003;3.429784e+001
2.773179e+003;3.426447e+001
2.775107e+003;3.423803e+001
2.777036e+003;3.425215e+001
2.778965e+003;3.421449e+001
2.780893e+003;3.419399e+001
2.782822e+003;3.420224e+001
2.784750e+003;3.416372e+001
2.786678e+003;3.415179e+001
2.788607e+003;3.415791e+001
2.790535e+003;3.411329e+001
2.792464e+003;3.410668e+001
2.794393e+003;3.411027e+001
2.796321e+003;3.406841e+001
2.798250e+003;3.406365e+001
2.800178e+003;3.405965e+001
2.802106e+003;3.402008e+001
2.804035e+003;3.402296e+001
2.805963e+003;3.401015e+001
2.807892e+003;3.397265e+001
2.809821e+003;3.398012e+001
2.811749e+003;3.396513e+001
2.813677e+003;3.392781e+001
2.815606e+003;3.393449e+001
2.817534e+003;3.391320e+001
2.819463e+003;3.388609e+001
2.821391e+003;3.389310e+001
2.823320e+003;3.386374e+001
2.825249e+003;3.383838e+001
2.827177e+003;3.384749e+001
2.829105e+003;3.381745e+001
2.831034e+003;3.379840e+001
2.832962e+003;3.380068e+001
2.834891e+003;3.376777e+001
2.836819e+003;3.375806e+001
2.838748e+003;3.375867e+001
2.840677e+003;3.371931e+001
2.842605e+003;3.371412e+001
2.844533e+003;3.371132e+001
2.846462e+003;3.367515e+001
2.848390e+003;3.367125e+001
2.850319e+003;3.366136e+001
2.852247e+003;3.362869e+001
2.854176e+003;3.363388e+001
2.856104e+003;3.361520e+001
2.858033e+003;3.358336e+001
2.859961e+003;3.359173e+001
2.861890e+003;3.357224e+001
2.863818e+003;3.354350e+001
2.865747e+003;3.355003e+001
2.867675e+003;3.352288e+001
2.869604e+003;3.350332e+001
2.871532e+003;3.351144e+001
2.873461e+003;3.347829e+001
2.875389e+003;3.345958e+001
2.877318e+003;3.346793e+001
2.879246e+003;3.343287e+001
2.881175e+003;3.342181e+001
2.883103e+003;3.342410e+001
2.885032e+003;3.338815e+001
2.886960e+003;3.338521e+001
2.888889e+003;3.338229e+001
2.890817e+003;3.333958e+001
2.892746e+003;3.334324e+001
2.894674e+003;3.334010e+001
2.896603e+003;3.330017e+001
2.898531e+003;3.330257e+001
2.900460e+003;3.329189e+001
2.902388e+003;3.325589e+001
2.904317e+003;3.326664e+001
2.906245e+003;3.324751e+001
2.908174e+003;3.321272e+001
2.910102e+003;3.322703e+001
2.912031e+003;3.320779e+001
2.913959e+003;3.317448e+001
2.915888e+003;3.318438e+001
2.917816e+003;3.315692e+001
2.919745e+003;3.313412e+001
2.921673e+003;3.314556e+001
2.923602e+003;3.311071e+001
2.925530e+003;3.308962e+001
2.927459e+003;3.310504e+001
2.929387e+003;3.306997e+001
2.931316e+003;3.305313e+001
2.933244e+003;3.306004e+001
2.935173e+003;3.302396e+001
2.937101e+003;3.301644e+001
2.939030e+003;3.301997e+001
2.940958e+003;3.297776e+001
2.942887e+003;3.297787e+001
2.944815e+003;3.298147e+001
2.946744e+003;3.294239e+001
2.948672e+003;3.294005e+001
2.950601e+003;3.293555e+001
2.952529e+003;3.290113e+001
2.954458e+003;3.290623e+001
2.956386e+003;3.289048e+001
2.958315e+003;3.285638e+001
2.960243e+003;3.286665e+001
2.962172e+003;3.285217e+001
2.964100e+003;3.281997e+001
2.966029e+003;3.282570e+001
2.967957e+003;3.280448e+001
2.969886e+003;3.278526e+001
2.971814e+003;3.279304e+001
2.973743e+003;3.276560e+001
2.975671e+003;3.274746e+001
2.977600e+003;3.275602e+001
2.979528e+003;3.272597e+001
2.981457e+003;3.271159e+001
2.983385e+003;3.271152e+001
2.985314e+003;3.268443e+001
2.987242e+003;3.268097e+001
2.989171e+003;3.267771e+001
2.991099e+003;3.264493e+001
2.993028e+003;3.264669e+001
2.994956e+003;3.264042e+001
2.996885e+003;3.260824e+001
2.998813e+003;3.260796e+001
3.000742e+003;3.259601e+001
3.002670e+003;3.257007e+001
3.004599e+003;3.257961e+001
3.006527e+003;3.255758e+001
3.008456e+003;3.253030e+001
3.010384e+003;3.254340e+001
3.012313e+003;3.252436e+001
3.014241e+003;3.250100e+001
3.016170e+003;3.250714e+001
3.018098e+003;3.247964e+001
3.020027e+003;3.246808e+001
3.021955e+003;3.247531e+001
3.023884e+003;3.244086e+001
3.025812e+003;3.243010e+001
3.027741e+003;3.244034e+001
3.029669e+003;3.240580e+001
3.031598e+003;3.239932e+001
3.033526e+003;3.240091e+001
3.035455e+003;3.236676e+001
3.037383e+003;3.236890e+001
3.039312e+003;3.236682e+001
3.041240e+003;3.232823e+001
3.043169e+003;3.233620e+001
3.045097e+003;3.233214e+001
3.047026e+003;3.229445e+001
3.048954e+003;3.229917e+001
3.050883e+003;3.228879e+001
3.052811e+003;3.225903e+001
3.054740e+003;3.227319e+001
3.056668e+003;3.225194e+001
3.058597e+003;3.222075e+001
3.060525e+003;3.223700e+001
3.062454e+003;3.221880e+001
3.064382e+003;3.219068e+001
3.066311e+003;3.220241e+001
3.068239e+003;3.217716e+001
3.070167e+003;3.216043e+001
3.072096e+003;3.217047e+001
3.074025e+003;3.213798e+001
3.075953e+003;3.212487e+001
3.077882e+003;3.214135e+001
3.079810e+003;3.210944e+001
3.081739e+003;3.209548e+001
3.083667e+003;3.209866e+001
3.085595e+003;3.206990e+001
3.087524e+003;3.206642e+001
3.089453e+003;3.206530e+001
3.091381e+003;3.203096e+001
3.093310e+003;3.203387e+001
3.095238e+003;3.203273e+001
3.097167e+003;3.200319e+001
3.099095e+003;3.200243e+001
3.101023e+003;3.199299e+001
3.102952e+003;3.196839e+001
3.104881e+003;3.197477e+001
3.106809e+003;3.195691e+001
3.108738e+003;3.193303e+001
3.110666e+003;3.194120e+001
3.112594e+003;3.192476e+001
3.114523e+003;3.190368e+001
3.116451e+003;3.190809e+001
3.118380e+003;3.188770e+001
3.120309e+003;3.187971e+001
3.122237e+003;3.187973e+001
3.124166e+003;3.184809e+001
3.126094e+003;3.184004e+001
3.128022e+003;3.184682e+001
3.129951e+003;3.181834e+001
3.131879e+003;3.181209e+001
3.133808e+003;3.180767e+001
3.135737e+003;3.178240e+001
3.137665e+003;3.178636e+001
3.139594e+003;3.177811e+001
3.141522e+003;3.174606e+001
3.143450e+003;3.175461e+001
3.145379e+003;3.174628e+001
3.147307e+003;3.171941e+001
3.149236e+003;3.172445e+001
3.151165e+003;3.171025e+001
3.153093e+003;3.168871e+001
3.155021e+003;3.169864e+001
3.156950e+003;3.167237e+001
3.158878e+003;3.165202e+001
3.160807e+003;3.166741e+001
3.162735e+003;3.164519e+001
3.164664e+003;3.162498e+001
3.166593e+003;3.163313e+001
3.168521e+003;3.160613e+001
3.170449e+003;3.159871e+001
3.172378e+003;3.160516e+001
3.174306e+003;3.157118e+001
3.176235e+003;3.156575e+001
3.178163e+003;3.157620e+001
3.180092e+003;3.154342e+001
3.182021e+003;3.153923e+001
3.183949e+003;3.154011e+001
3.185877e+003;3.151092e+001
3.187806e+003;3.151506e+001
3.189734e+003;3.151128e+001
3.191663e+003;3.147504e+001
3.193591e+003;3.148288e+001
3.195520e+003;3.148072e+001
3.197448e+003;3.145027e+001
3.199377e+003;3.145252e+001
3.201305e+003;3.144366e+001
3.203234e+003;3.142115e+001
3.205162e+003;3.143048e+001
3.207091e+003;3.141043e+001
3.209019e+003;3.138739e+001
3.210948e+003;3.139863e+001
3.212876e+003;3.138200e+001
3.214805e+003;3.136033e+001
3.216733e+003;3.136625e+001
3.218662e+003;3.134665e+001
3.220590e+003;3.133756e+001
3.222519e+003;3.133943e+001
3.224447e+003;3.131273e+001
3.226376e+003;3.130542e+001
3.228304e+003;3.131162e+001
3.230233e+003;3.128699e+001
3.232161e+003;3.128043e+001
3.234090e+003;3.127572e+001
3.236018e+003;3.125506e+001
3.237947e+003;3.125745e+001
3.239875e+003;3.124849e+001
3.241804e+003;3.122122e+001
3.243732e+003;3.122626e+001
3.245661e+003;3.121831e+001
3.247589e+003;3.119663e+001
3.249518e+003;3.119463e+001
3.251446e+003;3.118002e+001
3.253375e+003;3.116651e+001
3.255303e+003;3.117219e+001
3.257232e+003;3.114811e+001
3.259160e+003;3.113443e+001
3.261089e+003;3.114220e+001
3.263017e+003;3.112196e+001
3.264946e+003;3.110917e+001
3.266874e+003;3.111090e+001
3.268803e+003;3.108792e+001
3.270731e+003;3.108691e+001
3.272660e+003;3.108522e+001
3.274588e+003;3.105436e+001
3.276517e+003;3.105263e+001
3.278445e+003;3.105540e+001
3.280374e+003;3.102751e+001
3.282302e+003;3.102680e+001
3.284231e+003;3.101972e+001
3.286159e+003;3.099702e+001
3.288088e+003;3.100452e+001
3.290016e+003;3.099426e+001
3.291945e+003;3.096496e+001
3.293873e+003;3.097441e+001
3.295802e+003;3.096625e+001
3.297730e+003;3.094227e+001
3.299659e+003;3.094531e+001
3.301587e+003;3.093057e+001
3.303516e+003;3.091477e+001
3.305444e+003;3.092525e+001
3.307373e+003;3.090106e+001
3.309301e+003;3.088255e+001
3.311230e+003;3.089300e+001
3.313158e+003;3.087414e+001
3.315087e+003;3.085703e+001
3.317015e+003;3.086073e+001
3.318944e+003;3.083841e+001
3.320872e+003;3.083284e+001
3.322801e+003;3.083520e+001
3.324729e+003;3.080984e+001
3.326658e+003;3.080376e+001
3.328586e+003;3.080657e+001
3.330515e+003;3.078077e+001
3.332443e+003;3.077515e+001
3.334372e+003;3.077047e+001
3.336300e+003;3.075258e+001
3.338229e+003;3.075415e+001
3.340157e+003;3.074428e+001
3.342086e+003;3.072001e+001
3.344014e+003;3.072388e+001
3.345943e+003;3.071633e+001
3.347871e+003;3.069710e+001
3.349800e+003;3.069440e+001
3.351728e+003;3.068276e+001
3.353657e+003;3.067031e+001
3.355585e+003;3.067193e+001
3.357514e+003;3.065019e+001
3.359442e+003;3.063855e+001
3.361371e+003;3.064190e+001
3.363299e+003;3.062624e+001
3.365228e+003;3.061506e+001
3.367156e+003;3.061053e+001
3.369085e+003;3.059109e+001
3.371013e+003;3.059057e+001
3.372942e+003;3.058536e+001
3.374870e+003;3.056195e+001
3.376799e+003;3.055909e+001
3.378727e+003;3.055557e+001
3.380656e+003;3.053500e+001
3.382584e+003;3.053182e+001
3.384513e+003;3.051843e+001
3.386441e+003;3.050301e+001
3.388370e+003;3.050902e+001
3.390298e+003;3.049530e+001
3.392227e+003;3.047253e+001
3.394155e+003;3.047721e+001
3.396083e+003;3.046438e+001
3.398012e+003;3.044938e+001
3.399941e+003;3.044851e+001
3.401869e+003;3.042977e+001
3.403798e+003;3.041933e+001
3.405726e+003;3.042453e+001
3.407655e+003;3.039954e+001
3.409583e+003;3.038754e+001
3.411511e+003;3.039274e+001
3.413440e+003;3.037550e+001
3.415369e+003;3.036361e+001
3.417297e+003;3.036139e+001
3.419226e+003;3.034021e+001
3.421154e+003;3.033971e+001
3.423083e+003;3.033642e+001
3.425011e+003;3.030914e+001
3.426939e+003;3.030463e+001
3.428868e+003;3.030812e+001
3.430797e+003;3.028603e+001
3.432725e+003;3.027774e+001
3.434654e+003;3.026896e+001
3.436582e+003;3.025458e+001
3.438510e+003;3.025619e+001
3.440439e+003;3.024365e+001
3.442367e+003;3.021864e+001
3.444296e+003;3.022105e+001
3.446225e+003;3.021533e+001
3.448153e+003;3.019849e+001
3.450082e+003;3.019106e+001
3.452010e+003;3.017956e+001
3.453938e+003;3.017007e+001
3.455867e+003;3.017053e+001
3.457795e+003;3.014915e+001
3.459724e+003;3.013382e+001
3.461653e+003;3.013508e+001
3.463581e+003;3.012551e+001
3.465510e+003;3.011119e+001
3.467438e+003;3.010141e+001
3.469366e+003;3.008734e+001
3.471295e+003;3.008727e+001
3.473223e+003;3.007797e+001
3.475152e+003;3.005596e+001
3.477081e+003;3.004983e+001
3.479009e+003;3.004905e+001
3.480938e+003;3.003666e+001
3.482866e+003;3.002784e+001
3.484794e+003;3.001319e+001
3.486723e+003;3.000491e+001
3.488651e+003;3.000465e+001
3.490580e+003;2.998709e+001
3.492509e+003;2.996875e+001
3.494437e+003;2.997082e+001
3.496365e+003;2.996262e+001
3.498294e+003;2.994927e+001
3.500222e+003;2.993761e+001
3.502151e+003;2.992214e+001
3.504079e+003;2.991871e+001
3.506008e+003;2.991819e+001
3.507937e+003;2.989417e+001
3.509865e+003;2.988414e+001
3.511793e+003;2.988553e+001
3.513722e+003;2.987284e+001
3.515650e+003;2.986086e+001
3.517579e+003;2.985109e+001
3.519507e+003;2.983570e+001
3.521436e+003;2.983658e+001
3.523365e+003;2.982684e+001
3.525293e+003;2.980255e+001
3.527221e+003;2.979629e+001
3.529150e+003;2.979698e+001
3.531078e+003;2.978233e+001
3.533007e+003;2.977158e+001
3.534935e+003;2.975824e+001
3.536864e+003;2.974932e+001
3.538792e+003;2.974944e+001
3.540721e+003;2.973572e+001
3.542649e+003;2.971391e+001
3.544578e+003;2.971293e+001
3.546506e+003;2.970727e+001
3.548435e+003;2.969291e+001
3.550363e+003;2.968046e+001
3.552292e+003;2.966908e+001
3.554220e+003;2.966246e+001
3.556149e+003;2.966016e+001
3.558077e+003;2.963987e+001
3.560006e+003;2.962463e+001
3.561934e+003;2.962385e+001
3.563863e+003;2.961654e+001
3.565791e+003;2.959795e+001
3.567720e+003;2.958499e+001
3.569648e+003;2.957787e+001
3.571577e+003;2.957627e+001
3.573505e+003;2.956497e+001
3.575434e+003;2.954522e+001
3.577362e+003;2.953455e+001
3.579291e+003;2.953520e+001
3.581219e+003;2.952457e+001
3.583148e+003;2.950768e+001
3.585076e+003;2.949424e+001
3.587005e+003;2.948921e+001
3.588933e+003;2.948292e+001
3.590862e+003;2.946838e+001
3.592790e+003;2.945054e+001
3.594719e+003;2.944745e+001
3.596647e+003;2.944463e+001
3.598576e+003;2.943247e+001
3.600504e+003;2.941366e+001
3.602433e+003;2.940430e+001
3.604361e+003;2.940293e+001
3.606290e+003;2.939492e+001
3.608218e+003;2.937315e+001
3.610147e+003;2.936075e+001
3.612075e+003;2.935750e+001
3.614004e+003;2.935180e+001
3.615932e+003;2.933554e+001
3.617861e+003;2.931999e+001
3.619789e+003;2.931120e+001
3.621718e+003;2.931149e+001
3.623646e+003;2.930088e+001
3.625575e+003;2.928108e+001
3.627503e+003;2.926659e+001
3.629432e+003;2.926503e+001
3.631360e+003;2.925766e+001
3.633289e+003;2.924203e+001
3.635217e+003;2.922949e+001
3.637146e+003;2.922496e+001
3.639074e+003;2.921915e+001
3.641003e+003;2.920619e+001
3.642931e+003;2.918527e+001
3.644860e+003;2.917938e+001
3.646788e+003;2.917616e+001
3.648717e+003;2.915886e+001
3.650645e+003;2.914103e+001
3.652574e+003;2.913729e+001
3.654502e+003;2.913180e+001
3.656431e+003;2.912509e+001
3.658359e+003;2.911043e+001
3.660288e+003;2.909558e+001
3.662216e+003;2.909381e+001
3.664145e+003;2.909093e+001
3.666073e+003;2.906908e+001
3.668002e+003;2.905306e+001
3.669930e+003;2.904485e+001
3.671859e+003;2.904043e+001
3.673787e+003;2.902898e+001
3.675716e+003;2.900987e+001
3.677644e+003;2.899745e+001
3.679573e+003;2.900288e+001
3.681501e+003;2.899472e+001
3.683430e+003;2.897091e+001
3.685358e+003;2.895930e+001
3.687287e+003;2.895347e+001
3.689215e+003;2.894517e+001
3.691144e+003;2.893696e+001
3.693072e+003;2.891669e+001
3.695001e+003;2.890940e+001
3.696929e+003;2.891371e+001
3.698858e+003;2.889752e+001
3.700786e+003;2.887293e+001
3.702715e+003;2.886988e+001
3.704643e+003;2.886513e+001
3.706572e+003;2.885578e+001
3.708500e+003;2.883985e+001
3.710429e+003;2.881920e+001
3.712357e+003;2.881638e+001
3.714286e+003;2.882050e+001
3.716214e+003;2.879673e+001
3.718143e+003;2.878059e+001
3.720071e+003;2.877739e+001
3.722000e+003;2.876963e+001
3.723928e+003;2.875958e+001
3.725857e+003;2.874085e+001
3.727785e+003;2.872108e+001
3.729714e+003;2.872647e+001
3.731642e+003;2.871476e+001
3.733571e+003;2.868914e+001
3.735499e+003;2.868139e+001
3.737427e+003;2.868069e+001
3.739356e+003;2.867213e+001
3.741285e+003;2.866303e+001
3.743213e+003;2.863457e+001
3.745142e+003;2.862722e+001
3.747070e+003;2.863716e+001
3.748999e+003;2.861511e+001
3.750927e+003;2.859032e+001
3.752855e+003;2.859176e+001
3.754784e+003;2.858593e+001
3.756713e+003;2.857803e+001
3.758641e+003;2.856444e+001
3.760570e+003;2.854178e+001
3.762498e+003;2.854215e+001
3.764427e+003;2.854435e+001
3.766355e+003;2.851613e+001
3.768283e+003;2.850233e+001
3.770212e+003;2.850096e+001
3.772141e+003;2.849181e+001
3.774069e+003;2.848582e+001
3.775998e+003;2.846935e+001
3.777926e+003;2.844730e+001
3.779854e+003;2.845420e+001
3.781783e+003;2.844421e+001
3.783711e+003;2.841708e+001
3.785640e+003;2.841235e+001
3.787569e+003;2.840834e+001
3.789497e+003;2.839687e+001
3.791426e+003;2.838887e+001
3.793354e+003;2.836200e+001
3.795282e+003;2.835259e+001
3.797211e+003;2.836154e+001
3.799139e+003;2.833883e+001
3.801068e+003;2.831336e+001
3.802997e+003;2.831609e+001
3.804925e+003;2.830389e+001
3.806854e+003;2.829672e+001
3.808782e+003;2.828587e+001
3.810710e+003;2.826163e+001
3.812639e+003;2.826488e+001
3.814567e+003;2.826219e+001
3.816496e+003;2.822923e+001
3.818425e+003;2.822101e+001
3.820353e+003;2.821698e+001
3.822281e+003;2.820487e+001
3.824210e+003;2.820234e+001
3.826138e+003;2.818031e+001
3.828067e+003;2.815761e+001
3.829995e+003;2.817241e+001
3.831924e+003;2.815864e+001
3.833853e+003;2.812670e+001
3.835781e+003;2.812224e+001
3.837709e+003;2.811218e+001
3.839638e+003;2.810346e+001
3.841566e+003;2.810347e+001
3.843495e+003;2.807256e+001
3.845423e+003;2.806560e+001
3.847352e+003;2.808087e+001
3.849281e+003;2.805201e+001
3.851209e+003;2.802371e+001
3.853137e+003;2.802360e+001
3.855066e+003;2.801168e+001
3.856994e+003;2.801194e+001
3.858923e+003;2.800131e+001
3.860851e+003;2.797008e+001
3.862780e+003;2.797545e+001
3.864708e+003;2.797854e+001
3.866637e+003;2.794095e+001
3.868565e+003;2.793202e+001
3.870494e+003;2.793267e+001
3.872422e+003;2.791788e+001
3.874351e+003;2.791338e+001
3.876279e+003;2.789372e+001
3.878208e+003;2.787015e+001
3.880136e+003;2.788450e+001
3.882065e+003;2.786848e+001
3.883993e+003;2.783506e+001
3.885922e+003;2.783443e+001
3.887850e+003;2.782936e+001
3.889779e+003;2.781927e+001
3.891707e+003;2.781478e+001
3.893636e+003;2.778254e+001
3.895564e+003;2.777740e+001
3.897493e+003;2.778717e+001
3.899421e+003;2.775512e+001
3.901350e+003;2.773590e+001
3.903278e+003;2.773944e+001
3.905207e+003;2.772414e+001
3.907135e+003;2.772406e+001
3.909064e+003;2.770856e+001
3.910992e+003;2.767703e+001
3.912921e+003;2.768859e+001
3.914849e+003;2.768404e+001
3.916778e+003;2.764372e+001
3.918706e+003;2.764358e+001
3.920635e+003;2.763892e+001
3.922563e+003;2.762200e+001
3.924492e+003;2.762285e+001
3.926420e+003;2.759555e+001
3.928349e+003;2.757427e+001
3.930277e+003;2.759424e+001
3.932206e+003;2.757130e+001
3.934134e+003;2.754263e+001
3.936063e+003;2.754851e+001
3.937991e+003;2.753306e+001
3.939920e+003;2.752367e+001
3.941848e+003;2.752193e+001
3.943777e+003;2.748145e+001
3.945705e+003;2.748211e+001
3.947634e+003;2.749946e+001
3.949562e+003;2.746183e+001
3.951491e+003;2.744365e+001
3.953419e+003;2.745092e+001
3.955348e+003;2.742967e+001
3.957276e+003;2.742947e+001
3.959205e+003;2.741406e+001
3.961133e+003;2.737772e+001
3.963062e+003;2.739286e+001
3.964990e+003;2.739644e+001
3.966919e+003;2.735376e+001
3.968847e+003;2.735015e+001
3.970776e+003;2.734343e+001
3.972704e+003;2.732776e+001
3.974633e+003;2.733387e+001
3.976561e+003;2.730711e+001
3.978490e+003;2.728383e+001
3.980418e+003;2.730728e+001
3.982347e+003;2.728659e+001
3.984275e+003;2.725469e+001
3.986204e+003;2.725762e+001
3.988132e+003;2.724347e+001
3.990061e+003;2.723566e+001
3.991989e+003;2.723390e+001
3.993918e+003;2.719543e+001
3.995846e+003;2.719755e+001
3.997775e+003;2.721071e+001
3.999703e+003;2.717585e+001
