3.991989e+002;5.193809e+001
4.011274e+002;5.209494e+001
4.030559e+002;5.229566e+001
4.049844e+002;5.250815e+001
4.069129e+002;5.214399e+001
4.088414e+002;5.221373e+001
4.107699e+002;5.273468e+001
4.126984e+002;5.270821e+001
4.146269e+002;5.249014e+001
4.165554e+002;5.260109e+001
4.184839e+002;5.257685e+001
4.204124e+002;5.256922e+001
4.223409e+002;5.260344e+001
4.242694e+002;5.254684e+001
4.261979e+002;5.250270e+001
4.281264e+002;5.267037e+001
4.300549e+002;5.279644e+001
4.319834e+002;5.262726e+001
4.339119e+002;5.248825e+001
4.358404e+002;5.261598e+001
4.377689e+002;5.274904e+001
4.396974e+002;5.265539e+001
4.416259e+002;5.257788e+001
4.435544e+002;5.253808e+001
4.454829e+002;5.247036e+001
4.474114e+002;5.239120e+001
4.493399e+002;5.237802e+001
4.512684e+002;5.231482e+001
4.531969e+002;5.218158e+001
4.551254e+002;5.205235e+001
4.570539e+002;5.199585e+001
4.589824e+002;5.197564e+001
4.609109e+002;5.183503e+001
4.628394e+002;5.175117e+001
4.647679e+002;5.164541e+001
4.666964e+002;5.146397e+001
4.686248e+002;5.134122e+001
4.705533e+002;5.124580e+001
4.724818e+002;5.112605e+001
4.744103e+002;5.097697e+001
4.763388e+002;5.079826e+001
4.782673e+002;5.054002e+001
4.801958e+002;5.036276e+001
4.821243e+002;5.017090e+001
4.840528e+002;4.992059e+001
4.859813e+002;4.975715e+001
4.879098e+002;4.962454e+001
4.898383e+002;4.956883e+001
4.917668e+002;4.954582e+001
4.936953e+002;4.947413e+001
4.956238e+002;4.929099e+001
4.975523e+002;4.911669e+001
4.994808e+002;4.904068e+001
5.014093e+002;4.883983e+001
5.033378e+002;4.858965e+001
5.052663e+002;4.840101e+001
5.071948e+002;4.812462e+001
5.091233e+002;4.768820e+001
5.110518e+002;4.709480e+001
5.129803e+002;4.651643e+001
5.149088e+002;4.658021e+001
5.168373e+002;4.724296e+001
5.187657e+002;4.789156e+001
5.206943e+002;4.821544e+001
5.226227e+002;4.835649e+001
5.245513e+002;4.838309e+001
5.264797e+002;4.839929e+001
5.284083e+002;4.837674e+001
5.303367e+002;4.831944e+001
5.322653e+002;4.823130e+001
5.341937e+002;4.816891e+001
5.361223e+002;4.806258e+001
5.380507e+002;4.791693e+001
5.399792e+002;4.781379e+001
5.419077e+002;4.769317e+001
5.438362e+002;4.748356e+001
5.457647e+002;4.726020e+001
5.476932e+002;4.705297e+001
5.496217e+002;4.682436e+001
5.515502e+002;4.657160e+001
5.534787e+002;4.633340e+001
5.554072e+002;4.612945e+001
5.573357e+002;4.589783e+001
5.592642e+002;4.561662e+001
5.611927e+002;4.534807e+001
5.631212e+002;4.505309e+001
5.650497e+002;4.478230e+001
5.669782e+002;4.459238e+001
5.689067e+002;4.464091e+001
5.708352e+002;4.486279e+001
5.727637e+002;4.493516e+001
5.746922e+002;4.484293e+001
5.766207e+002;4.465387e+001
5.785492e+002;4.438379e+001
5.804777e+002;4.399837e+001
5.824062e+002;4.355242e+001
5.843347e+002;4.305455e+001
5.862632e+002;4.243255e+001
5.881917e+002;4.171936e+001
5.901202e+002;4.086013e+001
5.920486e+002;3.985640e+001
5.939772e+002;3.873168e+001
5.959056e+002;3.749437e+001
5.978342e+002;3.608518e+001
5.997626e+002;3.436568e+001
6.016912e+002;3.246578e+001
6.036196e+002;3.098955e+001
6.055482e+002;2.985606e+001
6.074766e+002;2.878584e+001
6.094052e+002;2.790294e+001
6.113336e+002;2.775014e+001
6.132621e+002;2.818596e+001
6.151906e+002;2.843492e+001
6.171191e+002;2.845740e+001
6.190476e+002;2.845666e+001
6.209761e+002;2.865480e+001
6.229046e+002;2.970786e+001
6.248331e+002;3.201765e+001
6.267616e+002;3.502578e+001
6.286901e+002;3.804107e+001
6.306186e+002;4.014439e+001
6.325471e+002;4.107413e+001
6.344756e+002;4.133579e+001
6.364041e+002;4.143135e+001
6.383326e+002;4.151548e+001
6.402611e+002;4.159850e+001
6.421896e+002;4.171561e+001
6.441181e+002;4.185012e+001
6.460466e+002;4.198224e+001
6.479751e+002;4.210657e+001
6.499036e+002;4.223476e+001
6.518321e+002;4.239109e+001
6.537606e+002;4.257085e+001
6.556891e+002;4.275332e+001
6.576176e+002;4.294818e+001
6.595461e+002;4.315007e+001
6.614745e+002;4.335898e+001
6.634031e+002;4.358194e+001
6.653315e+002;4.383545e+001
6.672601e+002;4.410240e+001
6.691885e+002;4.436043e+001
6.711171e+002;4.461567e+001
6.730455e+002;4.488230e+001
6.749741e+002;4.513948e+001
6.769025e+002;4.540113e+001
6.788311e+002;4.566275e+001
6.807595e+002;4.591752e+001
6.826880e+002;4.617329e+001
6.846165e+002;4.641360e+001
6.865450e+002;4.663688e+001
6.884735e+002;4.687845e+001
6.904020e+002;4.715371e+001
6.923305e+002;4.744870e+001
6.942590e+002;4.776424e+001
6.961875e+002;4.811582e+001
6.981160e+002;4.847052e+001
7.000445e+002;4.873241e+001
7.019730e+002;4.889281e+001
7.039015e+002;4.898721e+001
7.058300e+002;4.903493e+001
7.077585e+002;4.901677e+001
7.096870e+002;4.888086e+001
7.116155e+002;4.860394e+001
7.135440e+002;4.816773e+001
7.154725e+002;4.767903e+001
7.174010e+002;4.729643e+001
7.193295e+002;4.701505e+001
7.212580e+002;4.676614e+001
7.231865e+002;4.654166e+001
7.251150e+002;4.631444e+001
7.270435e+002;4.607926e+001
7.289720e+002;4.585222e+001
7.309005e+002;4.561731e+001
7.328290e+002;4.538387e+001
7.347574e+002;4.519133e+001
7.366860e+002;4.502924e+001
7.386144e+002;4.495536e+001
7.405430e+002;4.507576e+001
7.424714e+002;4.540504e+001
7.444000e+002;4.575205e+001
7.463284e+002;4.602475e+001
7.482570e+002;4.623963e+001
7.501854e+002;4.640368e+001
7.521140e+002;4.653505e+001
7.540424e+002;4.663516e+001
7.559709e+002;4.669415e+001
7.578994e+002;4.674580e+001
7.598279e+002;4.679635e+001
7.617564e+002;4.684370e+001
7.636849e+002;4.687157e+001
7.656134e+002;4.688919e+001
7.675419e+002;4.689066e+001
7.694704e+002;4.687949e+001
7.713989e+002;4.686700e+001
7.733274e+002;4.686594e+001
7.752559e+002;4.688045e+001
7.771844e+002;4.689957e+001
7.791129e+002;4.691524e+001
7.810414e+002;4.692801e+001
7.829699e+002;4.693138e+001
7.848984e+002;4.694781e+001
7.868269e+002;4.697097e+001
7.887554e+002;4.701129e+001
7.906839e+002;4.707076e+001
7.926124e+002;4.715049e+001
7.945409e+002;4.727301e+001
7.964694e+002;4.749559e+001
7.983979e+002;4.780256e+001
8.003264e+002;4.794975e+001
8.022549e+002;4.786245e+001
8.041833e+002;4.766640e+001
8.061119e+002;4.744974e+001
8.080403e+002;4.724678e+001
8.099689e+002;4.707750e+001
8.118973e+002;4.693356e+001
8.138259e+002;4.679085e+001
8.157543e+002;4.668217e+001
8.176829e+002;4.665032e+001
8.196113e+002;4.668750e+001
8.215399e+002;4.677083e+001
8.234683e+002;4.688907e+001
8.253969e+002;4.705104e+001
8.273253e+002;4.726608e+001
8.292538e+002;4.751788e+001
8.311823e+002;4.776111e+001
8.331108e+002;4.794267e+001
8.350393e+002;4.804014e+001
8.369678e+002;4.806202e+001
8.388963e+002;4.803239e+001
8.408248e+002;4.797773e+001
8.427533e+002;4.790277e+001
8.446818e+002;4.782652e+001
8.466103e+002;4.776517e+001
8.485388e+002;4.770417e+001
8.504673e+002;4.762860e+001
8.523958e+002;4.754259e+001
8.543243e+002;4.744421e+001
8.562528e+002;4.731765e+001
8.581813e+002;4.715333e+001
8.601098e+002;4.694611e+001
8.620383e+002;4.670669e+001
8.639668e+002;4.649041e+001
8.658953e+002;4.632011e+001
8.678238e+002;4.617739e+001
8.697523e+002;4.603970e+001
8.716808e+002;4.589789e+001
8.736093e+002;4.574907e+001
8.755378e+002;4.559618e+001
8.774662e+002;4.545250e+001
8.793948e+002;4.532723e+001
8.813232e+002;4.522915e+001
8.832518e+002;4.516769e+001
8.851802e+002;4.513427e+001
8.871088e+002;4.511327e+001
8.890372e+002;4.512126e+001
8.909658e+002;4.515492e+001
8.928942e+002;4.520400e+001
8.948227e+002;4.527473e+001
8.967512e+002;4.536458e+001
8.986797e+002;4.546083e+001
9.006082e+002;4.556097e+001
9.025367e+002;4.565544e+001
9.044652e+002;4.575181e+001
9.063937e+002;4.586189e+001
9.083222e+002;4.598801e+001
9.102507e+002;4.614576e+001
9.121792e+002;4.633197e+001
9.141077e+002;4.650913e+001
9.160362e+002;4.666328e+001
9.179647e+002;4.679741e+001
9.198932e+002;4.691592e+001
9.218217e+002;4.701723e+001
9.237502e+002;4.711377e+001
9.256786e+002;4.720654e+001
9.276072e+002;4.728393e+001
9.295356e+002;4.734526e+001
9.314642e+002;4.739873e+001
9.333926e+002;4.744510e+001
9.353212e+002;4.749319e+001
9.372496e+002;4.753343e+001
9.391782e+002;4.756253e+001
9.411066e+002;4.756901e+001
9.430352e+002;4.755125e+001
9.449636e+002;4.750838e+001
9.468922e+002;4.745838e+001
9.488206e+002;4.741413e+001
9.507491e+002;4.737123e+001
9.526776e+002;4.732359e+001
9.546061e+002;4.727534e+001
9.565346e+002;4.722967e+001
9.584631e+002;4.719471e+001
9.603916e+002;4.717923e+001
9.623201e+002;4.717837e+001
9.642486e+002;4.718701e+001
9.661771e+002;4.720745e+001
9.681056e+002;4.723092e+001
9.700341e+002;4.725806e+001
9.719626e+002;4.730204e+001
9.738911e+002;4.736522e+001
9.758196e+002;4.743869e+001
9.777481e+002;4.752243e+001
9.796766e+002;4.761234e+001
9.816051e+002;4.770280e+001
9.835336e+002;4.779618e+001
9.854621e+002;4.789459e+001
9.873906e+002;4.800628e+001
9.893191e+002;4.812743e+001
9.912476e+002;4.824284e+001
9.931761e+002;4.834389e+001
9.951046e+002;4.843576e+001
9.970331e+002;4.851704e+001
9.989615e+002;4.859472e+001
1.000890e+003;4.867935e+001
1.002819e+003;4.876341e+001
1.004747e+003;4.884515e+001
1.006676e+003;4.891575e+001
1.008604e+003;4.897056e+001
1.010533e+003;4.901558e+001
1.012461e+003;4.907344e+001
1.014390e+003;4.914754e+001
1.016318e+003;4.923145e+001
1.018247e+003;4.931054e+001
1.020175e+003;4.937338e+001
1.022104e+003;4.942162e+001
1.024032e+003;4.946712e+001
1.025961e+003;4.951415e+001
1.027889e+003;4.956485e+001
1.029818e+003;4.961551e+001
1.031746e+003;4.966121e+001
1.033675e+003;4.969661e+001
1.035603e+003;4.972192e+001
1.037531e+003;4.974175e+001
1.039460e+003;4.975997e+001
1.041389e+003;4.977330e+001
1.043317e+003;4.978028e+001
1.045245e+003;4.977769e+001
1.047174e+003;4.976453e+001
1.049103e+003;4.974294e+001
1.051031e+003;4.971717e+001
1.052959e+003;4.969096e+001
1.054888e+003;4.966592e+001
1.056817e+003;4.963209e+001
1.058745e+003;4.958030e+001
1.060673e+003;4.951371e+001
1.062602e+003;4.944186e+001
1.064531e+003;4.936220e+001
1.066459e+003;4.927441e+001
1.068387e+003;4.916587e+001
1.070316e+003;4.902685e+001
1.072245e+003;4.885069e+001
1.074173e+003;4.863003e+001
1.076101e+003;4.836559e+001
1.078030e+003;4.806893e+001
1.079958e+003;4.772192e+001
1.081887e+003;4.731596e+001
1.083815e+003;4.685078e+001
1.085744e+003;4.630959e+001
1.087672e+003;4.569688e+001
1.089601e+003;4.503065e+001
1.091529e+003;4.431900e+001
1.093458e+003;4.358689e+001
1.095386e+003;4.286079e+001
1.097315e+003;4.216559e+001
1.099243e+003;4.153540e+001
1.101172e+003;4.100600e+001
1.103100e+003;4.059781e+001
1.105029e+003;4.033326e+001
1.106957e+003;4.021469e+001
1.108886e+003;4.023382e+001
1.110814e+003;4.038565e+001
1.112743e+003;4.066331e+001
1.114671e+003;4.106468e+001
1.116600e+003;4.159040e+001
1.118528e+003;4.221980e+001
1.120457e+003;4.292901e+001
1.122385e+003;4.368988e+001
1.124314e+003;4.447164e+001
1.126242e+003;4.523841e+001
1.128171e+003;4.595579e+001
1.130099e+003;4.658320e+001
1.132028e+003;4.710649e+001
1.133956e+003;4.752434e+001
1.135885e+003;4.784562e+001
1.137813e+003;4.808861e+001
1.139742e+003;4.827672e+001
1.141670e+003;4.841640e+001
1.143599e+003;4.853413e+001
1.145527e+003;4.863912e+001
1.147456e+003;4.872862e+001
1.149384e+003;4.880110e+001
1.151313e+003;4.885869e+001
1.153241e+003;4.890174e+001
1.155170e+003;4.893539e+001
1.157098e+003;4.896727e+001
1.159027e+003;4.899965e+001
1.160955e+003;4.903446e+001
1.162884e+003;4.906486e+001
1.164812e+003;4.908537e+001
1.166741e+003;4.910562e+001
1.168669e+003;4.911995e+001
1.170598e+003;4.913927e+001
1.172526e+003;4.916624e+001
1.174455e+003;4.919416e+001
1.176383e+003;4.921542e+001
1.178312e+003;4.923841e+001
1.180240e+003;4.923698e+001
1.182169e+003;4.924889e+001
1.184097e+003;4.929169e+001
1.186026e+003;4.932102e+001
1.187954e+003;4.935461e+001
1.189883e+003;4.938298e+001
1.191811e+003;4.940341e+001
1.193740e+003;4.942068e+001
1.195668e+003;4.944268e+001
1.197597e+003;4.946543e+001
1.199525e+003;4.949509e+001
1.201454e+003;4.951987e+001
1.203382e+003;4.953575e+001
1.205311e+003;4.954552e+001
1.207239e+003;4.954930e+001
1.209168e+003;4.955083e+001
1.211096e+003;4.955767e+001
1.213025e+003;4.956018e+001
1.214953e+003;4.955381e+001
1.216882e+003;4.953899e+001
1.218810e+003;4.951347e+001
1.220739e+003;4.948267e+001
1.222667e+003;4.945667e+001
1.224596e+003;4.943382e+001
1.226524e+003;4.941765e+001
1.228453e+003;4.940626e+001
1.230381e+003;4.939242e+001
1.232310e+003;4.937456e+001
1.234238e+003;4.935783e+001
1.236167e+003;4.934295e+001
1.238095e+003;4.933179e+001
1.240024e+003;4.931922e+001
1.241952e+003;4.929804e+001
1.243881e+003;4.926985e+001
1.245809e+003;4.923685e+001
1.247738e+003;4.920145e+001
1.249666e+003;4.917208e+001
1.251595e+003;4.914599e+001
1.253523e+003;4.911561e+001
1.255452e+003;4.908234e+001
1.257380e+003;4.904266e+001
1.259309e+003;4.899603e+001
1.261237e+003;4.895244e+001
1.263166e+003;4.891396e+001
1.265094e+003;4.887737e+001
1.267023e+003;4.884250e+001
1.268951e+003;4.880286e+001
1.270880e+003;4.875646e+001
1.272808e+003;4.871077e+001
1.274737e+003;4.866456e+001
1.276665e+003;4.862149e+001
1.278594e+003;4.858403e+001
1.280522e+003;4.854239e+001
1.282451e+003;4.849591e+001
1.284379e+003;4.844794e+001
1.286308e+003;4.840059e+001
1.288236e+003;4.836063e+001
1.290165e+003;4.833017e+001
1.292093e+003;4.830176e+001
1.294022e+003;4.827367e+001
1.295950e+003;4.824527e+001
1.297879e+003;4.821559e+001
1.299807e+003;4.819157e+001
1.301736e+003;4.817829e+001
1.303664e+003;4.817066e+001
1.305593e+003;4.816709e+001
1.307521e+003;4.816361e+001
1.309450e+003;4.815613e+001
1.311378e+003;4.815053e+001
1.313307e+003;4.815167e+001
1.315235e+003;4.815836e+001
1.317164e+003;4.817130e+001
1.319092e+003;4.818545e+001
1.321021e+003;4.819353e+001
1.322949e+003;4.819914e+001
1.324878e+003;4.820490e+001
1.326806e+003;4.821203e+001
1.328735e+003;4.822408e+001
1.330663e+003;4.823759e+001
1.332592e+003;4.824620e+001
1.334520e+003;4.824669e+001
1.336449e+003;4.824020e+001
1.338377e+003;4.823147e+001
1.340306e+003;4.822643e+001
1.342234e+003;4.822042e+001
1.344163e+003;4.821141e+001
1.346091e+003;4.819728e+001
1.348020e+003;4.817496e+001
1.349948e+003;4.814672e+001
1.351877e+003;4.811831e+001
1.353805e+003;4.809199e+001
1.355734e+003;4.806854e+001
1.357662e+003;4.804632e+001
1.359591e+003;4.801665e+001
1.361519e+003;4.798208e+001
1.363448e+003;4.795138e+001
1.365376e+003;4.792318e+001
1.367305e+003;4.789991e+001
1.369233e+003;4.788214e+001
1.371161e+003;4.786362e+001
1.373090e+003;4.784113e+001
1.375019e+003;4.781707e+001
1.376947e+003;4.779268e+001
1.378875e+003;4.777471e+001
1.380804e+003;4.776260e+001
1.382733e+003;4.775025e+001
1.384661e+003;4.774086e+001
1.386589e+003;4.772982e+001
1.388518e+003;4.770856e+001
1.390447e+003;4.768748e+001
1.392375e+003;4.766967e+001
1.394303e+003;4.765197e+001
1.396232e+003;4.765003e+001
1.398161e+003;4.763964e+001
1.400089e+003;4.761733e+001
1.402017e+003;4.759931e+001
1.403946e+003;4.757776e+001
1.405875e+003;4.755753e+001
1.407803e+003;4.754517e+001
1.409731e+003;4.752527e+001
1.411660e+003;4.749650e+001
1.413589e+003;4.746563e+001
1.415517e+003;4.742789e+001
1.417445e+003;4.737735e+001
1.419374e+003;4.733220e+001
1.421302e+003;4.731049e+001
1.423231e+003;4.727712e+001
1.425159e+003;4.723117e+001
1.427088e+003;4.717473e+001
1.429016e+003;4.711603e+001
1.430945e+003;4.706460e+001
1.432873e+003;4.701262e+001
1.434802e+003;4.696414e+001
1.436730e+003;4.691784e+001
1.438659e+003;4.686050e+001
1.440587e+003;4.680892e+001
1.442516e+003;4.676688e+001
1.444444e+003;4.673130e+001
1.446373e+003;4.671350e+001
1.448301e+003;4.670462e+001
1.450230e+003;4.669241e+001
1.452158e+003;4.669347e+001
1.454087e+003;4.670534e+001
1.456015e+003;4.672992e+001
1.457944e+003;4.675978e+001
1.459872e+003;4.679599e+001
1.461801e+003;4.683833e+001
1.463729e+003;4.688414e+001
1.465658e+003;4.691822e+001
1.467586e+003;4.694667e+001
1.469515e+003;4.698180e+001
1.471443e+003;4.700848e+001
1.473372e+003;4.705501e+001
1.475300e+003;4.710046e+001
1.477229e+003;4.712175e+001
1.479157e+003;4.714224e+001
1.481086e+003;4.716605e+001
1.483014e+003;4.718222e+001
1.484943e+003;4.720564e+001
1.486871e+003;4.722884e+001
1.488800e+003;4.723635e+001
1.490728e+003;4.724128e+001
1.492657e+003;4.724749e+001
1.494585e+003;4.723939e+001
1.496514e+003;4.723866e+001
1.498442e+003;4.725193e+001
1.500371e+003;4.725585e+001
1.502299e+003;4.725657e+001
1.504228e+003;4.723847e+001
1.506156e+003;4.721619e+001
1.508085e+003;4.721564e+001
1.510013e+003;4.721477e+001
1.511942e+003;4.720679e+001
1.513870e+003;4.720052e+001
1.515799e+003;4.718153e+001
1.517727e+003;4.716352e+001
1.519656e+003;4.713704e+001
1.521584e+003;4.710771e+001
1.523513e+003;4.711026e+001
1.525441e+003;4.710672e+001
1.527370e+003;4.708218e+001
1.529298e+003;4.706419e+001
1.531227e+003;4.704567e+001
1.533155e+003;4.702021e+001
1.535084e+003;4.700507e+001
1.537012e+003;4.698844e+001
1.538941e+003;4.696333e+001
1.540869e+003;4.694977e+001
1.542798e+003;4.693337e+001
1.544726e+003;4.690471e+001
1.546655e+003;4.688689e+001
1.548583e+003;4.686481e+001
1.550512e+003;4.684493e+001
1.552440e+003;4.682747e+001
1.554369e+003;4.679562e+001
1.556297e+003;4.676556e+001
1.558226e+003;4.673810e+001
1.560154e+003;4.670232e+001
1.562083e+003;4.670530e+001
1.564011e+003;4.670905e+001
1.565940e+003;4.668313e+001
1.567868e+003;4.665998e+001
1.569797e+003;4.664334e+001
1.571725e+003;4.661401e+001
1.573654e+003;4.659251e+001
1.575582e+003;4.657135e+001
1.577511e+003;4.654937e+001
1.579439e+003;4.653961e+001
1.581368e+003;4.651999e+001
1.583296e+003;4.648966e+001
1.585225e+003;4.647153e+001
1.587153e+003;4.645422e+001
1.589082e+003;4.643280e+001
1.591010e+003;4.642049e+001
1.592939e+003;4.639879e+001
1.594867e+003;4.637135e+001
1.596796e+003;4.635479e+001
1.598724e+003;4.633158e+001
1.600653e+003;4.631018e+001
1.602581e+003;4.630039e+001
1.604510e+003;4.627885e+001
1.606438e+003;4.625550e+001
1.608367e+003;4.623798e+001
1.610295e+003;4.620984e+001
1.612224e+003;4.618993e+001
1.614152e+003;4.617989e+001
1.616081e+003;4.616241e+001
1.618009e+003;4.614134e+001
1.619938e+003;4.611809e+001
1.621866e+003;4.608183e+001
1.623795e+003;4.606019e+001
1.625723e+003;4.605075e+001
1.627652e+003;4.603288e+001
1.629580e+003;4.602147e+001
1.631509e+003;4.600234e+001
1.633437e+003;4.596575e+001
1.635366e+003;4.594285e+001
1.637294e+003;4.593008e+001
1.639223e+003;4.591601e+001
1.641151e+003;4.590924e+001
1.643080e+003;4.588622e+001
1.645008e+003;4.584872e+001
1.646937e+003;4.583559e+001
1.648865e+003;4.582275e+001
1.650794e+003;4.580594e+001
1.652722e+003;4.579376e+001
1.654651e+003;4.576424e+001
1.656579e+003;4.575096e+001
1.658508e+003;4.573754e+001
1.660436e+003;4.570546e+001
1.662365e+003;4.567888e+001
1.664293e+003;4.566936e+001
1.666222e+003;4.565083e+001
1.668150e+003;4.563851e+001
1.670079e+003;4.562122e+001
1.672007e+003;4.559063e+001
1.673936e+003;4.557807e+001
1.675864e+003;4.555810e+001
1.677793e+003;4.553243e+001
1.679721e+003;4.552305e+001
1.681650e+003;4.550134e+001
1.683578e+003;4.544705e+001
1.685507e+003;4.542527e+001
1.687435e+003;4.542612e+001
1.689364e+003;4.540474e+001
1.691292e+003;4.539281e+001
1.693221e+003;4.535899e+001
1.695149e+003;4.530684e+001
1.697078e+003;4.529733e+001
1.699006e+003;4.528502e+001
1.700935e+003;4.524921e+001
1.702863e+003;4.522731e+001
1.704792e+003;4.519287e+001
1.706720e+003;4.516930e+001
1.708649e+003;4.514440e+001
1.710577e+003;4.510473e+001
1.712505e+003;4.507410e+001
1.714434e+003;4.503879e+001
1.716363e+003;4.499265e+001
1.718291e+003;4.498054e+001
1.720219e+003;4.497389e+001
1.722148e+003;4.494918e+001
1.724077e+003;4.493467e+001
1.726005e+003;4.491687e+001
1.727933e+003;4.490149e+001
1.729862e+003;4.490252e+001
1.731791e+003;4.488899e+001
1.733719e+003;4.486124e+001
1.735647e+003;4.485823e+001
1.737576e+003;4.485123e+001
1.739505e+003;4.483184e+001
1.741433e+003;4.483193e+001
1.743361e+003;4.481910e+001
1.745290e+003;4.480734e+001
1.747219e+003;4.479310e+001
1.749147e+003;4.476096e+001
1.751075e+003;4.473658e+001
1.753004e+003;4.472870e+001
1.754932e+003;4.470584e+001
1.756861e+003;4.468999e+001
1.758789e+003;4.467530e+001
1.760718e+003;4.464293e+001
1.762646e+003;4.462482e+001
1.764575e+003;4.460888e+001
1.766503e+003;4.457882e+001
1.768432e+003;4.456557e+001
1.770360e+003;4.454550e+001
1.772289e+003;4.451234e+001
1.774217e+003;4.449916e+001
1.776146e+003;4.447818e+001
1.778074e+003;4.445339e+001
1.780003e+003;4.444225e+001
1.781931e+003;4.441808e+001
1.783860e+003;4.439604e+001
1.785788e+003;4.438126e+001
1.787717e+003;4.435339e+001
1.789645e+003;4.432832e+001
1.791574e+003;4.430407e+001
1.793502e+003;4.427650e+001
1.795431e+003;4.426859e+001
1.797359e+003;4.425484e+001
1.799288e+003;4.422558e+001
1.801216e+003;4.420408e+001
1.803145e+003;4.418499e+001
1.805073e+003;4.415696e+001
1.807002e+003;4.414275e+001
1.808930e+003;4.412257e+001
1.810859e+003;4.409581e+001
1.812787e+003;4.407983e+001
1.814716e+003;4.405490e+001
1.816644e+003;4.402521e+001
1.818573e+003;4.401227e+001
1.820501e+003;4.398924e+001
1.822430e+003;4.396589e+001
1.824358e+003;4.394820e+001
1.826287e+003;4.391906e+001
1.828215e+003;4.389555e+001
1.830144e+003;4.388193e+001
1.832072e+003;4.385474e+001
1.834001e+003;4.383625e+001
1.835929e+003;4.382079e+001
1.837858e+003;4.379029e+001
1.839786e+003;4.376846e+001
1.841715e+003;4.374870e+001
1.843643e+003;4.371615e+001
1.845572e+003;4.370349e+001
1.847500e+003;4.368821e+001
1.849429e+003;4.365866e+001
1.851357e+003;4.364180e+001
1.853286e+003;4.361814e+001
1.855214e+003;4.358770e+001
1.857143e+003;4.357569e+001
1.859071e+003;4.355346e+001
1.861000e+003;4.352724e+001
1.862928e+003;4.351352e+001
1.864857e+003;4.348404e+001
1.866785e+003;4.345269e+001
1.868714e+003;4.343707e+001
1.870642e+003;4.341140e+001
1.872571e+003;4.339228e+001
1.874499e+003;4.337827e+001
1.876428e+003;4.334556e+001
1.878356e+003;4.332106e+001
1.880285e+003;4.330392e+001
1.882213e+003;4.327088e+001
1.884142e+003;4.325200e+001
1.886070e+003;4.323329e+001
1.887999e+003;4.319836e+001
1.889927e+003;4.317728e+001
1.891856e+003;4.315340e+001
1.893784e+003;4.311737e+001
1.895713e+003;4.310272e+001
1.897641e+003;4.307814e+001
1.899570e+003;4.304307e+001
1.901498e+003;4.302266e+001
1.903427e+003;4.298959e+001
1.905355e+003;4.295230e+001
1.907284e+003;4.293233e+001
1.909212e+003;4.289628e+001
1.911141e+003;4.286237e+001
1.913069e+003;4.283999e+001
1.914998e+003;4.279816e+001
1.916926e+003;4.276005e+001
1.918855e+003;4.273182e+001
1.920783e+003;4.268497e+001
1.922712e+003;4.264938e+001
1.924640e+003;4.261644e+001
1.926569e+003;4.256347e+001
1.928497e+003;4.252281e+001
1.930426e+003;4.248259e+001
1.932354e+003;4.242409e+001
1.934283e+003;4.238458e+001
1.936211e+003;4.234073e+001
1.938140e+003;4.228189e+001
1.940068e+003;4.223666e+001
1.941997e+003;4.217859e+001
1.943925e+003;4.211129e+001
1.945854e+003;4.206628e+001
1.947782e+003;4.200662e+001
1.949711e+003;4.194041e+001
1.951639e+003;4.188978e+001
1.953568e+003;4.182106e+001
1.955496e+003;4.175261e+001
1.957425e+003;4.169976e+001
1.959353e+003;4.162623e+001
1.961282e+003;4.156235e+001
1.963210e+003;4.150911e+001
1.965139e+003;4.143210e+001
1.967067e+003;4.136570e+001
1.968996e+003;4.130835e+001
1.970924e+003;4.123296e+001
1.972853e+003;4.117686e+001
1.974781e+003;4.112074e+001
1.976710e+003;4.104765e+001
1.978638e+003;4.099557e+001
1.980567e+003;4.093880e+001
1.982495e+003;4.086804e+001
1.984424e+003;4.082395e+001
1.986352e+003;4.077281e+001
1.988281e+003;4.071645e+001
1.990209e+003;4.068042e+001
1.992138e+003;4.062834e+001
1.994066e+003;4.057690e+001
1.995995e+003;4.055204e+001
1.997923e+003;4.050957e+001
1.999852e+003;4.047328e+001
2.001780e+003;4.045576e+001
2.003709e+003;4.041779e+001
2.005637e+003;4.039047e+001
2.007566e+003;4.037755e+001
2.009494e+003;4.034535e+001
2.011423e+003;4.033422e+001
2.013351e+003;4.032981e+001
2.015280e+003;4.030222e+001
2.017208e+003;4.029340e+001
2.019137e+003;4.028679e+001
2.021065e+003;4.026378e+001
2.022994e+003;4.026559e+001
2.024922e+003;4.025911e+001
2.026851e+003;4.023989e+001
2.028779e+003;4.024430e+001
2.030708e+003;4.023340e+001
2.032636e+003;4.021165e+001
2.034565e+003;4.021587e+001
2.036493e+003;4.020388e+001
2.038422e+003;4.018926e+001
2.040350e+003;4.019136e+001
2.042279e+003;4.016995e+001
2.044207e+003;4.015312e+001
2.046135e+003;4.015417e+001
2.048064e+003;4.012950e+001
2.049992e+003;4.011671e+001
2.051921e+003;4.011486e+001
2.053850e+003;4.008886e+001
2.055778e+003;4.007667e+001
2.057707e+003;4.006895e+001
2.059635e+003;4.003822e+001
2.061563e+003;4.003391e+001
2.063492e+003;4.002721e+001
2.065420e+003;3.999879e+001
2.067349e+003;3.999433e+001
2.069278e+003;3.998380e+001
2.071206e+003;3.996083e+001
2.073135e+003;3.996568e+001
2.075063e+003;3.995481e+001
2.076991e+003;3.994016e+001
2.078920e+003;3.995259e+001
2.080848e+003;3.994345e+001
2.082777e+003;3.993317e+001
2.084706e+003;3.994933e+001
2.086634e+003;3.994552e+001
2.088563e+003;3.995061e+001
2.090491e+003;3.997123e+001
2.092419e+003;3.996870e+001
2.094348e+003;3.998233e+001
2.096276e+003;4.000794e+001
2.098205e+003;4.000850e+001
2.100134e+003;4.003243e+001
2.102062e+003;4.006222e+001
2.103990e+003;4.006875e+001
2.105919e+003;4.009568e+001
2.107847e+003;4.011946e+001
2.109776e+003;4.012752e+001
2.111704e+003;4.016476e+001
2.113633e+003;4.018830e+001
2.115562e+003;4.019814e+001
2.117490e+003;4.023259e+001
2.119418e+003;4.024928e+001
2.121347e+003;4.025855e+001
2.123275e+003;4.029084e+001
2.125204e+003;4.030172e+001
2.127132e+003;4.031628e+001
2.129061e+003;4.034795e+001
2.130990e+003;4.035107e+001
2.132918e+003;4.036057e+001
2.134846e+003;4.038550e+001
2.136775e+003;4.038460e+001
2.138703e+003;4.039907e+001
2.140632e+003;4.041751e+001
2.142560e+003;4.041085e+001
2.144489e+003;4.042321e+001
2.146417e+003;4.043371e+001
2.148346e+003;4.042065e+001
2.150274e+003;4.043192e+001
2.152203e+003;4.043603e+001
2.154131e+003;4.042450e+001
2.156060e+003;4.043504e+001
2.157988e+003;4.042821e+001
2.159917e+003;4.041130e+001
2.161845e+003;4.042074e+001
2.163774e+003;4.040938e+001
2.165702e+003;4.039493e+001
2.167631e+003;4.040052e+001
2.169559e+003;4.038234e+001
2.171488e+003;4.036739e+001
2.173416e+003;4.036885e+001
2.175345e+003;4.034510e+001
2.177273e+003;4.033583e+001
2.179202e+003;4.033677e+001
2.181130e+003;4.031021e+001
2.183059e+003;4.029812e+001
2.184987e+003;4.029069e+001
2.186916e+003;4.026311e+001
2.188844e+003;4.025747e+001
2.190773e+003;4.024833e+001
2.192701e+003;4.022025e+001
2.194630e+003;4.021321e+001
2.196558e+003;4.019904e+001
2.198487e+003;4.017034e+001
2.200415e+003;4.016367e+001
2.202344e+003;4.014534e+001
2.204272e+003;4.012126e+001
2.206201e+003;4.011474e+001
2.208129e+003;4.009026e+001
2.210058e+003;4.006524e+001
2.211986e+003;4.006084e+001
2.213915e+003;4.003580e+001
2.215843e+003;4.001358e+001
2.217772e+003;4.000482e+001
2.219700e+003;3.997552e+001
2.221629e+003;3.995439e+001
2.223557e+003;3.994514e+001
2.225486e+003;3.991314e+001
2.227414e+003;3.989684e+001
2.229343e+003;3.988776e+001
2.231271e+003;3.985452e+001
2.233200e+003;3.983722e+001
2.235128e+003;3.982161e+001
2.237057e+003;3.978709e+001
2.238985e+003;3.977703e+001
2.240914e+003;3.975882e+001
2.242842e+003;3.972441e+001
2.244771e+003;3.971579e+001
2.246699e+003;3.969414e+001
2.248628e+003;3.965849e+001
2.250556e+003;3.965117e+001
2.252485e+003;3.962656e+001
2.254413e+003;3.959773e+001
2.256342e+003;3.959072e+001
2.258270e+003;3.955804e+001
2.260199e+003;3.952985e+001
2.262127e+003;3.952641e+001
2.264056e+003;3.949283e+001
2.265984e+003;3.947098e+001
2.267913e+003;3.946626e+001
2.269841e+003;3.943123e+001
2.271770e+003;3.941259e+001
2.273698e+003;3.940159e+001
2.275627e+003;3.936255e+001
2.277555e+003;3.935373e+001
2.279484e+003;3.934314e+001
2.281412e+003;3.930500e+001
2.283341e+003;3.929506e+001
2.285269e+003;3.927711e+001
2.287198e+003;3.924040e+001
2.289126e+003;3.923686e+001
2.291055e+003;3.921447e+001
2.292983e+003;3.918277e+001
2.294912e+003;3.918230e+001
2.296840e+003;3.915496e+001
2.298769e+003;3.912205e+001
2.300697e+003;3.911986e+001
2.302626e+003;3.908914e+001
2.304554e+003;3.906689e+001
2.306483e+003;3.906372e+001
2.308411e+003;3.902585e+001
2.310340e+003;3.900524e+001
2.312268e+003;3.900179e+001
2.314197e+003;3.896307e+001
2.316125e+003;3.894943e+001
2.318054e+003;3.894066e+001
2.319982e+003;3.890266e+001
2.321911e+003;3.889433e+001
2.323839e+003;3.887812e+001
2.325768e+003;3.883740e+001
2.327696e+003;3.883635e+001
2.329625e+003;3.881717e+001
2.331553e+003;3.877998e+001
2.333482e+003;3.877856e+001
2.335410e+003;3.875225e+001
2.337339e+003;3.872027e+001
2.339267e+003;3.872272e+001
2.341196e+003;3.869244e+001
2.343124e+003;3.866529e+001
2.345053e+003;3.866841e+001
2.346981e+003;3.863366e+001
2.348910e+003;3.860867e+001
2.350838e+003;3.861004e+001
2.352767e+003;3.857276e+001
2.354695e+003;3.855797e+001
2.356624e+003;3.855450e+001
2.358552e+003;3.851357e+001
2.360481e+003;3.850265e+001
2.362409e+003;3.849527e+001
2.364338e+003;3.845209e+001
2.366266e+003;3.844660e+001
2.368195e+003;3.843377e+001
2.370123e+003;3.839359e+001
2.372052e+003;3.839240e+001
2.373980e+003;3.837173e+001
2.375908e+003;3.833340e+001
2.377837e+003;3.833892e+001
2.379766e+003;3.831297e+001
2.381694e+003;3.827880e+001
2.383623e+003;3.828264e+001
2.385551e+003;3.825025e+001
2.387479e+003;3.822224e+001
2.389408e+003;3.822718e+001
2.391336e+003;3.818890e+001
2.393265e+003;3.816859e+001
2.395194e+003;3.817214e+001
2.397122e+003;3.813013e+001
2.399051e+003;3.811326e+001
2.400979e+003;3.811227e+001
2.402907e+003;3.806974e+001
2.404836e+003;3.806307e+001
2.406764e+003;3.805623e+001
2.408693e+003;3.801157e+001
2.410622e+003;3.800887e+001
2.412550e+003;3.799677e+001
2.414479e+003;3.795265e+001
2.416407e+003;3.795483e+001
2.418335e+003;3.793587e+001
2.420264e+003;3.789820e+001
2.422192e+003;3.790391e+001
2.424121e+003;3.787577e+001
2.426050e+003;3.784019e+001
2.427978e+003;3.784909e+001
2.429906e+003;3.781722e+001
2.431835e+003;3.778861e+001
2.433763e+003;3.779433e+001
2.435692e+003;3.775692e+001
2.437620e+003;3.773539e+001
2.439549e+003;3.773873e+001
2.441478e+003;3.769650e+001
2.443406e+003;3.768372e+001
2.445334e+003;3.768367e+001
2.447263e+003;3.763894e+001
2.449191e+003;3.762950e+001
2.451120e+003;3.762376e+001
2.453048e+003;3.757996e+001
2.454977e+003;3.757995e+001
2.456906e+003;3.756679e+001
2.458834e+003;3.752422e+001
2.460762e+003;3.752795e+001
2.462691e+003;3.750804e+001
2.464619e+003;3.746788e+001
2.466548e+003;3.747476e+001
2.468476e+003;3.744968e+001
2.470405e+003;3.741740e+001
2.472333e+003;3.742303e+001
2.474262e+003;3.738873e+001
2.476190e+003;3.736105e+001
2.478119e+003;3.736932e+001
2.480047e+003;3.733207e+001
2.481976e+003;3.731160e+001
2.483904e+003;3.731486e+001
2.485833e+003;3.727530e+001
2.487761e+003;3.726156e+001
2.489690e+003;3.725883e+001
2.491618e+003;3.721555e+001
2.493547e+003;3.721169e+001
2.495475e+003;3.720494e+001
2.497404e+003;3.716050e+001
2.499332e+003;3.715718e+001
2.501261e+003;3.714450e+001
2.503189e+003;3.710600e+001
2.505118e+003;3.711032e+001
2.507046e+003;3.708873e+001
2.508975e+003;3.705370e+001
2.510903e+003;3.705907e+001
2.512832e+003;3.703084e+001
2.514760e+003;3.700086e+001
2.516689e+003;3.700742e+001
2.518617e+003;3.697509e+001
2.520546e+003;3.695485e+001
2.522474e+003;3.695816e+001
2.524403e+003;3.691844e+001
2.526331e+003;3.690158e+001
2.528260e+003;3.690381e+001
2.530188e+003;3.686447e+001
2.532117e+003;3.685496e+001
2.534045e+003;3.684826e+001
2.535974e+003;3.680717e+001
2.537902e+003;3.680328e+001
2.539831e+003;3.678995e+001
2.541759e+003;3.674971e+001
2.543688e+003;3.675428e+001
2.545616e+003;3.673527e+001
2.547545e+003;3.669715e+001
2.549473e+003;3.670188e+001
2.551402e+003;3.667689e+001
2.553330e+003;3.664560e+001
2.555259e+003;3.665301e+001
2.557187e+003;3.661940e+001
2.559116e+003;3.659459e+001
2.561044e+003;3.660255e+001
2.562973e+003;3.656430e+001
2.564901e+003;3.654506e+001
2.566830e+003;3.654916e+001
2.568758e+003;3.650767e+001
2.570687e+003;3.649930e+001
2.572615e+003;3.649833e+001
2.574544e+003;3.645256e+001
2.576472e+003;3.644947e+001
2.578401e+003;3.644418e+001
2.580329e+003;3.639957e+001
2.582258e+003;3.640324e+001
2.584186e+003;3.638966e+001
2.586115e+003;3.634871e+001
2.588043e+003;3.635569e+001
2.589972e+003;3.633269e+001
2.591900e+003;3.629444e+001
2.593829e+003;3.630730e+001
2.595757e+003;3.627871e+001
2.597686e+003;3.624601e+001
2.599614e+003;3.625700e+001
2.601543e+003;3.622182e+001
2.603471e+003;3.619770e+001
2.605400e+003;3.620951e+001
2.607328e+003;3.616713e+001
2.609257e+003;3.614971e+001
2.611185e+003;3.615795e+001
2.613114e+003;3.611254e+001
2.615042e+003;3.610176e+001
2.616971e+003;3.610487e+001
2.618899e+003;3.605943e+001
2.620828e+003;3.605858e+001
2.622756e+003;3.605191e+001
2.624685e+003;3.600404e+001
2.626613e+003;3.600874e+001
2.628542e+003;3.599846e+001
2.630470e+003;3.595356e+001
2.632399e+003;3.596204e+001
2.634327e+003;3.594237e+001
2.636256e+003;3.590366e+001
2.638184e+003;3.591411e+001
2.640113e+003;3.588683e+001
2.642041e+003;3.585408e+001
2.643970e+003;3.586738e+001
2.645898e+003;3.583286e+001
2.647827e+003;3.580536e+001
2.649755e+003;3.581350e+001
2.651684e+003;3.577621e+001
2.653612e+003;3.576012e+001
2.655541e+003;3.576688e+001
2.657469e+003;3.572304e+001
2.659398e+003;3.571304e+001
2.661326e+003;3.571523e+001
2.663255e+003;3.567096e+001
2.665183e+003;3.566555e+001
2.667112e+003;3.566115e+001
2.669040e+003;3.562055e+001
2.670969e+003;3.562304e+001
2.672897e+003;3.560685e+001
2.674826e+003;3.556715e+001
2.676754e+003;3.557462e+001
2.678683e+003;3.555517e+001
2.680611e+003;3.552044e+001
2.682540e+003;3.552763e+001
2.684468e+003;3.550013e+001
2.686397e+003;3.547369e+001
2.688325e+003;3.547931e+001
2.690254e+003;3.544535e+001
2.692182e+003;3.542610e+001
2.694111e+003;3.543343e+001
2.696039e+003;3.539578e+001
2.697968e+003;3.538160e+001
2.699896e+003;3.537986e+001
2.701825e+003;3.534141e+001
2.703753e+003;3.533798e+001
2.705682e+003;3.533187e+001
2.707610e+003;3.529009e+001
2.709539e+003;3.529277e+001
2.711467e+003;3.528105e+001
2.713396e+003;3.524249e+001
2.715324e+003;3.524755e+001
2.717253e+003;3.522839e+001
2.719181e+003;3.519607e+001
2.721110e+003;3.520591e+001
2.723038e+003;3.517603e+001
2.724967e+003;3.514668e+001
2.726895e+003;3.515792e+001
2.728823e+003;3.512474e+001
2.730752e+003;3.510175e+001
2.732681e+003;3.511066e+001
2.734609e+003;3.507257e+001
2.736538e+003;3.506091e+001
2.738466e+003;3.506540e+001
2.740395e+003;3.502093e+001
2.742323e+003;3.501582e+001
2.744251e+003;3.501937e+001
2.746180e+003;3.497466e+001
2.748109e+003;3.497383e+001
2.750037e+003;3.496690e+001
2.751966e+003;3.492560e+001
2.753894e+003;3.493399e+001
2.755823e+003;3.491922e+001
2.757751e+003;3.487678e+001
2.759679e+003;3.489014e+001
2.761608e+003;3.486929e+001
2.763537e+003;3.483138e+001
2.765465e+003;3.484367e+001
2.767394e+003;3.481755e+001
2.769322e+003;3.478906e+001
2.771250e+003;3.480363e+001
2.773179e+003;3.476864e+001
2.775107e+003;3.474608e+001
2.777036e+003;3.475886e+001
2.778965e+003;3.471955e+001
2.780893e+003;3.470261e+001
2.782822e+003;3.471143e+001
2.784750e+003;3.467027e+001
2.786678e+003;3.466339e+001
2.788607e+003;3.466443e+001
2.790535e+003;3.461938e+001
2.792464e+003;3.461873e+001
2.794393e+003;3.461841e+001
2.796321e+003;3.457706e+001
2.798250e+003;3.457866e+001
2.800178e+003;3.456609e+001
2.802106e+003;3.453008e+001
2.804035e+003;3.453859e+001
2.805963e+003;3.451897e+001
2.807892e+003;3.448464e+001
2.809821e+003;3.449677e+001
2.811749e+003;3.447209e+001
2.813677e+003;3.444247e+001
2.815606e+003;3.444995e+001
2.817534e+003;3.442170e+001
2.819463e+003;3.440388e+001
2.821391e+003;3.440899e+001
2.823320e+003;3.437165e+001
2.825249e+003;3.436016e+001
2.827177e+003;3.436327e+001
2.829105e+003;3.432683e+001
2.831034e+003;3.431976e+001
2.832962e+003;3.431557e+001
2.834891e+003;3.428120e+001
2.836819e+003;3.428449e+001
2.838748e+003;3.427090e+001
2.840677e+003;3.423300e+001
2.842605e+003;3.423934e+001
2.844533e+003;3.422369e+001
2.846462e+003;3.419114e+001
2.848390e+003;3.419587e+001
2.850319e+003;3.416961e+001
2.852247e+003;3.414824e+001
2.854176e+003;3.415777e+001
2.856104e+003;3.412288e+001
2.858033e+003;3.410419e+001
2.859961e+003;3.411564e+001
2.861890e+003;3.407938e+001
2.863818e+003;3.406728e+001
2.865747e+003;3.407064e+001
2.867675e+003;3.403272e+001
2.869604e+003;3.403058e+001
2.871532e+003;3.402827e+001
2.873461e+003;3.398577e+001
2.875389e+003;3.399092e+001
2.877318e+003;3.398524e+001
2.879246e+003;3.394431e+001
2.881175e+003;3.394946e+001
2.883103e+003;3.393430e+001
2.885032e+003;3.389889e+001
2.886960e+003;3.391337e+001
2.888889e+003;3.388976e+001
2.890817e+003;3.385599e+001
2.892746e+003;3.387335e+001
2.894674e+003;3.384817e+001
2.896603e+003;3.381808e+001
2.898531e+003;3.382853e+001
2.900460e+003;3.379584e+001
2.902388e+003;3.378014e+001
2.904317e+003;3.379202e+001
2.906245e+003;3.375148e+001
2.908174e+003;3.373770e+001
2.910102e+003;3.374845e+001
2.912031e+003;3.370821e+001
2.913959e+003;3.369974e+001
2.915888e+003;3.370036e+001
2.917816e+003;3.366093e+001
2.919745e+003;3.366212e+001
2.921673e+003;3.365707e+001
2.923602e+003;3.361443e+001
2.925530e+003;3.362045e+001
2.927459e+003;3.361255e+001
2.929387e+003;3.357561e+001
2.931316e+003;3.357869e+001
2.933244e+003;3.356131e+001
2.935173e+003;3.353207e+001
2.937101e+003;3.354110e+001
2.939030e+003;3.351409e+001
2.940958e+003;3.349025e+001
2.942887e+003;3.350238e+001
2.944815e+003;3.347533e+001
2.946744e+003;3.345454e+001
2.948672e+003;3.345749e+001
2.950601e+003;3.342701e+001
2.952529e+003;3.342016e+001
2.954458e+003;3.341862e+001
2.956386e+003;3.338124e+001
2.958315e+003;3.337817e+001
2.960243e+003;3.337511e+001
2.962172e+003;3.333883e+001
2.964100e+003;3.333894e+001
2.966029e+003;3.332692e+001
2.967957e+003;3.329895e+001
2.969886e+003;3.330703e+001
2.971814e+003;3.328549e+001
2.973743e+003;3.325642e+001
2.975671e+003;3.326785e+001
2.977600e+003;3.324419e+001
2.979528e+003;3.322193e+001
2.981457e+003;3.322722e+001
2.983385e+003;3.319621e+001
2.985314e+003;3.318428e+001
2.987242e+003;3.319115e+001
2.989171e+003;3.315091e+001
2.991099e+003;3.314401e+001
2.993028e+003;3.315200e+001
2.994956e+003;3.311403e+001
2.996885e+003;3.310941e+001
2.998813e+003;3.310789e+001
3.000742e+003;3.307055e+001
3.002670e+003;3.307760e+001
3.004599e+003;3.306924e+001
3.006527e+003;3.302921e+001
3.008456e+003;3.304044e+001
3.010384e+003;3.303069e+001
3.012313e+003;3.299430e+001
3.014241e+003;3.300373e+001
3.016170e+003;3.298241e+001
3.018098e+003;3.295552e+001
3.020027e+003;3.297035e+001
3.021955e+003;3.293989e+001
3.023884e+003;3.291362e+001
3.025812e+003;3.293148e+001
3.027741e+003;3.290332e+001
3.029669e+003;3.288333e+001
3.031598e+003;3.289117e+001
3.033526e+003;3.285941e+001
3.035455e+003;3.285061e+001
3.037383e+003;3.285556e+001
3.039312e+003;3.281612e+001
3.041240e+003;3.281338e+001
3.043169e+003;3.281701e+001
3.045097e+003;3.278014e+001
3.047026e+003;3.277666e+001
3.048954e+003;3.277128e+001
3.050883e+003;3.274181e+001
3.052811e+003;3.274797e+001
3.054740e+003;3.273258e+001
3.056668e+003;3.269966e+001
3.058597e+003;3.270691e+001
3.060525e+003;3.269274e+001
3.062454e+003;3.266629e+001
3.064382e+003;3.267040e+001
3.066311e+003;3.264894e+001
3.068239e+003;3.263525e+001
3.070167e+003;3.263951e+001
3.072096e+003;3.260829e+001
3.074025e+003;3.259616e+001
3.075953e+003;3.260268e+001
3.077882e+003;3.257378e+001
3.079810e+003;3.256492e+001
3.081739e+003;3.255911e+001
3.083667e+003;3.253123e+001
3.085595e+003;3.253345e+001
3.087524e+003;3.252231e+001
3.089453e+003;3.248928e+001
3.091381e+003;3.249603e+001
3.093310e+003;3.248383e+001
3.095238e+003;3.245583e+001
3.097167e+003;3.245966e+001
3.099095e+003;3.243884e+001
3.101023e+003;3.241940e+001
3.102952e+003;3.243142e+001
3.104881e+003;3.240123e+001
3.106809e+003;3.238239e+001
3.108738e+003;3.239459e+001
3.110666e+003;3.236520e+001
3.112594e+003;3.235067e+001
3.114523e+003;3.235646e+001
3.116451e+003;3.232418e+001
3.118380e+003;3.232283e+001
3.120309e+003;3.232468e+001
3.122237e+003;3.228267e+001
3.124166e+003;3.228248e+001
3.126094e+003;3.228632e+001
3.128022e+003;3.224953e+001
3.129951e+003;3.225020e+001
3.131879e+003;3.224203e+001
3.133808e+003;3.221198e+001
3.135737e+003;3.222229e+001
3.137665e+003;3.220758e+001
3.139594e+003;3.217337e+001
3.141522e+003;3.218646e+001
3.143450e+003;3.217268e+001
3.145379e+003;3.214427e+001
3.147307e+003;3.214909e+001
3.149236e+003;3.212868e+001
3.151165e+003;3.211433e+001
3.153093e+003;3.212355e+001
3.155021e+003;3.209163e+001
3.156950e+003;3.207650e+001
3.158878e+003;3.208570e+001
3.160807e+003;3.205866e+001
3.162735e+003;3.204490e+001
3.164664e+003;3.204484e+001
3.166593e+003;3.202036e+001
3.168521e+003;3.202047e+001
3.170449e+003;3.201359e+001
3.172378e+003;3.198178e+001
3.174306e+003;3.198359e+001
3.176235e+003;3.197897e+001
3.178163e+003;3.195220e+001
3.180092e+003;3.195080e+001
3.182021e+003;3.193504e+001
3.183949e+003;3.191759e+001
3.185877e+003;3.192235e+001
3.187806e+003;3.189917e+001
3.189734e+003;3.188234e+001
3.191663e+003;3.188948e+001
3.193591e+003;3.186691e+001
3.195520e+003;3.185482e+001
3.197448e+003;3.185339e+001
3.199377e+003;3.182710e+001
3.201305e+003;3.182502e+001
3.203234e+003;3.182372e+001
3.205162e+003;3.179107e+001
3.207091e+003;3.179249e+001
3.209019e+003;3.178965e+001
3.210948e+003;3.176083e+001
3.212876e+003;3.176142e+001
3.214805e+003;3.174852e+001
3.216733e+003;3.172427e+001
3.218662e+003;3.173631e+001
3.220590e+003;3.171769e+001
3.222519e+003;3.169007e+001
3.224447e+003;3.170201e+001
3.226376e+003;3.168555e+001
3.228304e+003;3.166316e+001
3.230233e+003;3.167036e+001
3.232161e+003;3.164713e+001
3.234090e+003;3.163553e+001
3.236018e+003;3.164404e+001
3.237947e+003;3.161415e+001
3.239875e+003;3.160190e+001
3.241804e+003;3.161070e+001
3.243732e+003;3.158247e+001
3.245661e+003;3.157418e+001
3.247589e+003;3.157297e+001
3.249518e+003;3.154543e+001
3.251446e+003;3.154727e+001
3.253375e+003;3.154387e+001
3.255303e+003;3.151028e+001
3.257232e+003;3.151236e+001
3.259160e+003;3.150799e+001
3.261089e+003;3.148119e+001
3.263017e+003;3.148036e+001
3.264946e+003;3.146850e+001
3.266874e+003;3.145062e+001
3.268803e+003;3.145779e+001
3.270731e+003;3.143793e+001
3.272660e+003;3.141670e+001
3.274588e+003;3.142335e+001
3.276517e+003;3.140766e+001
3.278445e+003;3.139141e+001
3.280374e+003;3.139069e+001
3.282302e+003;3.136962e+001
3.284231e+003;3.136385e+001
3.286159e+003;3.136136e+001
3.288088e+003;3.133643e+001
3.290016e+003;3.133284e+001
3.291945e+003;3.133108e+001
3.293873e+003;3.130930e+001
3.295802e+003;3.130609e+001
3.297730e+003;3.129395e+001
3.299659e+003;3.127532e+001
3.301587e+003;3.127867e+001
3.303516e+003;3.126424e+001
3.305444e+003;3.124528e+001
3.307373e+003;3.125047e+001
3.309301e+003;3.123326e+001
3.311230e+003;3.121748e+001
3.313158e+003;3.121633e+001
3.315087e+003;3.119473e+001
3.317015e+003;3.118810e+001
3.318944e+003;3.119103e+001
3.320872e+003;3.116195e+001
3.322801e+003;3.115569e+001
3.324729e+003;3.116046e+001
3.326658e+003;3.113498e+001
3.328586e+003;3.112947e+001
3.330515e+003;3.112571e+001
3.332443e+003;3.110074e+001
3.334372e+003;3.110493e+001
3.336300e+003;3.109871e+001
3.338229e+003;3.106985e+001
3.340157e+003;3.107209e+001
3.342086e+003;3.106579e+001
3.344014e+003;3.104226e+001
3.345943e+003;3.104445e+001
3.347871e+003;3.103061e+001
3.349800e+003;3.101385e+001
3.351728e+003;3.102110e+001
3.353657e+003;3.100191e+001
3.355585e+003;3.098123e+001
3.357514e+003;3.098749e+001
3.359442e+003;3.097235e+001
3.361371e+003;3.095843e+001
3.363299e+003;3.095671e+001
3.365228e+003;3.093765e+001
3.367156e+003;3.093239e+001
3.369085e+003;3.093269e+001
3.371013e+003;3.090755e+001
3.372942e+003;3.089897e+001
3.374870e+003;3.089785e+001
3.376799e+003;3.088000e+001
3.378727e+003;3.087248e+001
3.380656e+003;3.086360e+001
3.382584e+003;3.084916e+001
3.384513e+003;3.085120e+001
3.386441e+003;3.083775e+001
3.388370e+003;3.081772e+001
3.390298e+003;3.081787e+001
3.392227e+003;3.080779e+001
3.394155e+003;3.079218e+001
3.396083e+003;3.078552e+001
3.398012e+003;3.076991e+001
3.399941e+003;3.076840e+001
3.401869e+003;3.076636e+001
3.403798e+003;3.074232e+001
3.405726e+003;3.073359e+001
3.407655e+003;3.073352e+001
3.409583e+003;3.071790e+001
3.411511e+003;3.071245e+001
3.413440e+003;3.069877e+001
3.415369e+003;3.068092e+001
3.417297e+003;3.068578e+001
3.419226e+003;3.067621e+001
3.421154e+003;3.065313e+001
3.423083e+003;3.065539e+001
3.425011e+003;3.064604e+001
3.426939e+003;3.062999e+001
3.428868e+003;3.062703e+001
3.430797e+003;3.060825e+001
3.432725e+003;3.059846e+001
3.434654e+003;3.060661e+001
3.436582e+003;3.058548e+001
3.438510e+003;3.056829e+001
3.440439e+003;3.057262e+001
3.442367e+003;3.056036e+001
3.444296e+003;3.054871e+001
3.446225e+003;3.054200e+001
3.448153e+003;3.052207e+001
3.450082e+003;3.052145e+001
3.452010e+003;3.052106e+001
3.453938e+003;3.049779e+001
3.455867e+003;3.048888e+001
3.457795e+003;3.048940e+001
3.459724e+003;3.047534e+001
3.461653e+003;3.046701e+001
3.463581e+003;3.045473e+001
3.465510e+003;3.044231e+001
3.467438e+003;3.044524e+001
3.469366e+003;3.043502e+001
3.471295e+003;3.041476e+001
3.473223e+003;3.041264e+001
3.475152e+003;3.040859e+001
3.477081e+003;3.039721e+001
3.479009e+003;3.038548e+001
3.480938e+003;3.037275e+001
3.482866e+003;3.036968e+001
3.484794e+003;3.036789e+001
3.486723e+003;3.034966e+001
3.488651e+003;3.033746e+001
3.490580e+003;3.033435e+001
3.492509e+003;3.032853e+001
3.494437e+003;3.031972e+001
3.496365e+003;3.030479e+001
3.498294e+003;3.029460e+001
3.500222e+003;3.029677e+001
3.502151e+003;3.028473e+001
3.504079e+003;3.026780e+001
3.506008e+003;3.026331e+001
3.507937e+003;3.025824e+001
3.509865e+003;3.025045e+001
3.511793e+003;3.024088e+001
3.513722e+003;3.022232e+001
3.515650e+003;3.021976e+001
3.517579e+003;3.022211e+001
3.519507e+003;3.020506e+001
3.521436e+003;3.019162e+001
3.523365e+003;3.018813e+001
3.525293e+003;3.017944e+001
3.527221e+003;3.017210e+001
3.529150e+003;3.015943e+001
3.531078e+003;3.014756e+001
3.533007e+003;3.014917e+001
3.534935e+003;3.014441e+001
3.536864e+003;3.012481e+001
3.538792e+003;3.011745e+001
3.540721e+003;3.011406e+001
3.542649e+003;3.010690e+001
3.544578e+003;3.009735e+001
3.546506e+003;3.008267e+001
3.548435e+003;3.007488e+001
3.550363e+003;3.007729e+001
3.552292e+003;3.006510e+001
3.554220e+003;3.004819e+001
3.556149e+003;3.004365e+001
3.558077e+003;3.004193e+001
3.560006e+003;3.003303e+001
3.561934e+003;3.001983e+001
3.563863e+003;3.000756e+001
3.565791e+003;3.000320e+001
3.567720e+003;2.999835e+001
3.569648e+003;2.998663e+001
3.571577e+003;2.997388e+001
3.573505e+003;2.997034e+001
3.575434e+003;2.996984e+001
3.577362e+003;2.995947e+001
3.579291e+003;2.994337e+001
3.581219e+003;2.993873e+001
3.583148e+003;2.993651e+001
3.585076e+003;2.992518e+001
3.587005e+003;2.990889e+001
3.588933e+003;2.989979e+001
3.590862e+003;2.990036e+001
3.592790e+003;2.989841e+001
3.594719e+003;2.988159e+001
3.596647e+003;2.986751e+001
3.598576e+003;2.986769e+001
3.600504e+003;2.986494e+001
3.602433e+003;2.985215e+001
3.604361e+003;2.984112e+001
3.606290e+003;2.983177e+001
3.608218e+003;2.983082e+001
3.610147e+003;2.982573e+001
3.612075e+003;2.980715e+001
3.614004e+003;2.979976e+001
3.615932e+003;2.980239e+001
3.617861e+003;2.979245e+001
3.619789e+003;2.978104e+001
3.621718e+003;2.977048e+001
3.623646e+003;2.976609e+001
3.625575e+003;2.976577e+001
3.627503e+003;2.974899e+001
3.629432e+003;2.973134e+001
3.631360e+003;2.973456e+001
3.633289e+003;2.973537e+001
3.635217e+003;2.972674e+001
3.637146e+003;2.971431e+001
3.639074e+003;2.970441e+001
3.641003e+003;2.970425e+001
3.642931e+003;2.970061e+001
3.644860e+003;2.967962e+001
3.646788e+003;2.966743e+001
3.648717e+003;2.966680e+001
3.650645e+003;2.966376e+001
3.652574e+003;2.965750e+001
3.654502e+003;2.964319e+001
3.656431e+003;2.963549e+001
3.658359e+003;2.964351e+001
3.660288e+003;2.963211e+001
3.662216e+003;2.961280e+001
3.664145e+003;2.961153e+001
3.666073e+003;2.961007e+001
3.668002e+003;2.959961e+001
3.669930e+003;2.958744e+001
3.671859e+003;2.957332e+001
3.673787e+003;2.957294e+001
3.675716e+003;2.957417e+001
3.677644e+003;2.955826e+001
3.679573e+003;2.954741e+001
3.681501e+003;2.955075e+001
3.683430e+003;2.954237e+001
3.685358e+003;2.953460e+001
3.687287e+003;2.951776e+001
3.689215e+003;2.950460e+001
3.691144e+003;2.951520e+001
3.693072e+003;2.951184e+001
3.695001e+003;2.948850e+001
3.696929e+003;2.948751e+001
3.698858e+003;2.948812e+001
3.700786e+003;2.947769e+001
3.702715e+003;2.946871e+001
3.704643e+003;2.945279e+001
3.706572e+003;2.944722e+001
3.708500e+003;2.945255e+001
3.710429e+003;2.943131e+001
3.712357e+003;2.941524e+001
3.714286e+003;2.942354e+001
3.716214e+003;2.941830e+001
3.718143e+003;2.941047e+001
3.720071e+003;2.940205e+001
3.722000e+003;2.938353e+001
3.723928e+003;2.938951e+001
3.725857e+003;2.938847e+001
3.727785e+003;2.936352e+001
3.729714e+003;2.935953e+001
3.731642e+003;2.936075e+001
3.733571e+003;2.934897e+001
3.735499e+003;2.934506e+001
3.737427e+003;2.933031e+001
3.739356e+003;2.932030e+001
3.741285e+003;2.932991e+001
3.743213e+003;2.930684e+001
3.745142e+003;2.928237e+001
3.747070e+003;2.928922e+001
3.748999e+003;2.927874e+001
3.750927e+003;2.926880e+001
3.752855e+003;2.926539e+001
3.754784e+003;2.924727e+001
3.756713e+003;2.924842e+001
3.758641e+003;2.925511e+001
3.760570e+003;2.922584e+001
3.762498e+003;2.921750e+001
3.764427e+003;2.922276e+001
3.766355e+003;2.921196e+001
3.768283e+003;2.920776e+001
3.770212e+003;2.919413e+001
3.772141e+003;2.917728e+001
3.774069e+003;2.919103e+001
3.775998e+003;2.918209e+001
3.777926e+003;2.915465e+001
3.779854e+003;2.915691e+001
3.781783e+003;2.915482e+001
3.783711e+003;2.914417e+001
3.785640e+003;2.914350e+001
3.787569e+003;2.912094e+001
3.789497e+003;2.911708e+001
3.791426e+003;2.913069e+001
3.793354e+003;2.910771e+001
3.795282e+003;2.908998e+001
3.797211e+003;2.909609e+001
3.799139e+003;2.908130e+001
3.801068e+003;2.907521e+001
3.802997e+003;2.906881e+001
3.804925e+003;2.904649e+001
3.806854e+003;2.905833e+001
3.808782e+003;2.906236e+001
3.810710e+003;2.903103e+001
3.812639e+003;2.903240e+001
3.814567e+003;2.902833e+001
3.816496e+003;2.901438e+001
3.818425e+003;2.901917e+001
3.820353e+003;2.899505e+001
3.822281e+003;2.898258e+001
3.824210e+003;2.900632e+001
3.826138e+003;2.898497e+001
3.828067e+003;2.896184e+001
3.829995e+003;2.897167e+001
3.831924e+003;2.896164e+001
3.833853e+003;2.895483e+001
3.835781e+003;2.895156e+001
3.837709e+003;2.891959e+001
3.839638e+003;2.892948e+001
3.841566e+003;2.894390e+001
3.843495e+003;2.890928e+001
3.845423e+003;2.890202e+001
3.847352e+003;2.891074e+001
3.849281e+003;2.889288e+001
3.851209e+003;2.889014e+001
3.853137e+003;2.886953e+001
3.855066e+003;2.885260e+001
3.856994e+003;2.887829e+001
3.858923e+003;2.887083e+001
3.860851e+003;2.883858e+001
3.862780e+003;2.884577e+001
3.864708e+003;2.883993e+001
3.866637e+003;2.882986e+001
3.868565e+003;2.882976e+001
3.870494e+003;2.880107e+001
3.872422e+003;2.880011e+001
3.874351e+003;2.882080e+001
3.876279e+003;2.879260e+001
3.878208e+003;2.877634e+001
3.880136e+003;2.878212e+001
3.882065e+003;2.876792e+001
3.883993e+003;2.876864e+001
3.885922e+003;2.875849e+001
3.887850e+003;2.873116e+001
3.889779e+003;2.874815e+001
3.891707e+003;2.874595e+001
3.893636e+003;2.871238e+001
3.895564e+003;2.871909e+001
3.897493e+003;2.871519e+001
3.899421e+003;2.870102e+001
3.901350e+003;2.870922e+001
3.903278e+003;2.868016e+001
3.905207e+003;2.866907e+001
3.907135e+003;2.869495e+001
3.909064e+003;2.867028e+001
3.910992e+003;2.864987e+001
3.912921e+003;2.866292e+001
3.914849e+003;2.864250e+001
3.916778e+003;2.864162e+001
3.918706e+003;2.864112e+001
3.920635e+003;2.860414e+001
3.922563e+003;2.861639e+001
3.924492e+003;2.863049e+001
3.926420e+003;2.859028e+001
3.928349e+003;2.858944e+001
3.930277e+003;2.859463e+001
3.932206e+003;2.857462e+001
3.934134e+003;2.858508e+001
3.936063e+003;2.856565e+001
3.937991e+003;2.853878e+001
3.939920e+003;2.856682e+001
3.941848e+003;2.855258e+001
3.943777e+003;2.852052e+001
3.945705e+003;2.853370e+001
3.947634e+003;2.852206e+001
3.949562e+003;2.851193e+001
3.951491e+003;2.852007e+001
3.953419e+003;2.848538e+001
3.955348e+003;2.848439e+001
3.957276e+003;2.850610e+001
3.959205e+003;2.847120e+001
3.961133e+003;2.846062e+001
3.963062e+003;2.847032e+001
3.964990e+003;2.844918e+001
3.966919e+003;2.845645e+001
3.968847e+003;2.844436e+001
3.970776e+003;2.841056e+001
3.972704e+003;2.843352e+001
3.974633e+003;2.843276e+001
3.976561e+003;2.839689e+001
3.978490e+003;2.840607e+001
3.980418e+003;2.839723e+001
3.982347e+003;2.838518e+001
3.984275e+003;2.839713e+001
3.986204e+003;2.836452e+001
3.988132e+003;2.835396e+001
3.990061e+003;2.838400e+001
3.991989e+003;2.835243e+001
3.993918e+003;2.833405e+001
3.995846e+003;2.834708e+001
3.997775e+003;2.832367e+001
3.999703e+003;2.832941e+001
