991.312	-1.56129
989.711	135.832
988.11	129.568
986.508	134.232
984.906	123.289
983.304	118.59
981.701	127.934
980.099	127.915
978.496	143.494
976.893	149.711
975.29	134.096
973.686	138.754
972.082	130.939
970.478	144.947
968.874	115.317
967.269	138.671
965.665	119.956
964.06	146.418
962.454	130.822
960.849	137.031
959.243	144.795
957.637	130.762
956.031	150.976
954.425	129.166
952.818	143.15
951.211	149.351
949.604	132.217
947.996	144.639
946.389	144.616
944.781	136.82
943.172	149.234
941.564	146.102
939.955	136.755
938.346	122.749
936.737	128.944
935.128	147.563
933.518	142.88
931.908	141.305
930.298	152.15
928.687	141.259
927.076	147.444
925.465	127.247
923.854	131.881
922.242	138.065
920.631	156.655
919.018	142.672
917.406	147.3
915.793	142.625
914.181	125.551
912.567	141.028
910.954	150.302
909.34	134.784
907.726	128.566
906.112	130.093
904.498	136.265
902.883	119.212
901.268	147.055
899.652	150.125
898.037	160.932
896.421	136.15
894.805	139.22
893.188	151.57
891.572	126.802
889.955	128.326
888.338	148.4
886.72	139.101
885.102	146.804
883.484	139.053
881.866	142.119
880.247	137.46
878.628	162.144
877.009	145.132
875.389	129.67
873.77	132.734
872.15	145.056
870.529	137.316
868.909	132.664
867.288	120.302
865.666	131.075
864.045	121.801
862.423	115.614
860.801	144.876
859.179	129.441
857.556	129.418
855.933	127.854
854.31	120.131
852.686	120.109
851.063	126.246
849.439	127.762
847.814	124.661
846.189	133.871
844.564	130.77
842.939	141.514
841.314	127.647
839.688	124.548
838.062	122.988
836.435	133.725
834.808	121.406
833.181	125.994
831.554	139.797
829.926	101.372
828.298	124.389
826.67	128.972
825.041	133.553
823.413	133.528
821.783	144.245
820.154	128.876
818.524	122.716
816.894	134.963
815.264	108.87
813.633	136.446
812.002	125.691
810.371	122.602
808.739	137.901
807.107	137.876
805.475	128.66
803.842	108.728
802.21	127.08
800.576	117.871
798.943	111.727
797.309	113.236
795.675	128.514
794.041	123.901
792.406	126.936
790.771	131.499
789.136	108.542
787.5	120.75
785.864	125.311
784.228	119.176
782.592	125.263
780.955	108.439
779.317	140.485
777.68	109.924
776.042	138.905
774.404	112.934
772.766	134.274
771.127	128.146
769.488	115.919
767.848	117.422
766.209	129.597
764.569	120.425
762.928	108.209
761.288	129.521
759.647	112.738
758.005	137.087
756.364	129.446
754.722	108.104
753.08	135.485
751.437	132.414
749.794	117.171
748.151	135.405
746.507	118.647
744.864	111.019
743.219	115.559
741.575	117.057
739.93	115.514
738.285	112.452
736.639	124.585
734.994	106.332
733.348	123.017
731.701	121.474
730.054	115.378
728.407	127.498
726.76	107.745
725.112	124.413
723.464	113.77
721.816	121.33
720.167	121.306
718.518	116.734
716.869	119.743
715.219	113.657
713.569	112.12
711.918	124.216
710.268	116.619
708.617	128.709
706.965	115.058
705.314	139.253
703.662	124.092
702.009	113.476
700.357	131.606
698.704	130.068
697.05	119.457
695.397	116.41
693.743	108.829
692.089	128.453
690.434	125.405
688.779	122.359
687.124	135.927
685.468	137.41
683.812	141.911
682.156	146.411
680.499	132.8
678.842	123.72
677.185	140.289
675.527	140.261
673.869	135.709
672.211	143.219
670.552	138.669
668.893	131.106
667.234	146.146
665.574	159.674
663.915	159.642
662.254	129.495
660.594	143.017
658.933	156.535
657.271	162.523
655.61	138.417
653.948	163.961
652.285	165.432
650.623	166.902
648.96	139.809
647.296	159.319
645.633	165.298
643.969	160.757
642.304	154.716
640.64	169.703
638.975	169.669
637.309	154.622
635.644	142.584
633.978	160.562
632.311	166.53
630.645	167.996
628.978	158.964
627.31	158.932
625.642	154.403
623.974	169.359
622.306	166.327
620.637	140.825
618.968	158.771
617.299	169.221
615.629	179.667
613.959	146.698
612.288	161.635
610.618	167.587
608.947	167.553
607.275	158.544
605.603	170.475
603.931	176.421
602.259	147.984
600.586	161.404
598.913	176.313
597.239	173.289
595.565	167.28
593.891	143.353
592.217	149.296
590.542	146.28
588.867	165.651
587.191	150.697
585.515	144.699
583.839	144.669
582.162	119.29
580.485	141.629
578.808	138.619
577.131	129.649
575.453	138.562
573.774	144.492
572.096	128.08
570.417	131.032
568.737	122.073
567.058	144.374
565.378	104.166
563.697	127.949
562.017	139.823
560.336	127.897
558.654	133.818
556.972	127.845
555.29	139.709
553.608	108.475
551.925	129.252
550.242	141.108
548.559	133.654
546.875	130.657
545.191	132.115
543.506	132.088
541.821	137.996
540.136	158.737
538.451	166.121
536.765	157.189
535.079	139.366
533.392	188.254
531.705	183.769
530.018	208.921
528.33	186.657
526.642	207.354
524.954	205.831
523.266	241.32
521.577	309.36
519.887	399.569
518.198	352.141
516.508	344.672
514.817	298.754
513.127	338.617
511.435	351.853
509.744	359.171
508.052	387.175
506.36	403.348
504.668	400.311
502.975	432.72
501.282	459.21
499.588	466.497
497.895	467.877
496.2	497.295
494.506	488.341
492.811	531.017
491.116	541.232
489.42	516.055
487.724	580.812
486.028	555.638
484.332	565.839
482.635	604.027
480.937	600.958
479.24	599.362
477.542	591.878
475.843	581.453
474.145	560.73
472.446	560.615
470.746	586.981
469.047	625.102
467.346	569.094
465.646	577.799
463.945	562.982
462.244	592.259
460.543	540.712
458.841	578.796
457.139	555.178
455.436	512.48
453.733	499.162
452.03	509.335
450.327	472.542
448.623	450.438
446.919	460.614
445.214	491.319
443.509	457.493
441.804	395.826
440.098	397.211
438.392	389.803
436.686	391.188
434.979	396.968
433.272	373.454
431.565	376.306
429.857	335.24
428.149	352.735
426.44	343.883
424.732	295.532
423.022	317.413
421.313	289.562
419.603	299.738
417.893	301.138
416.182	312.769
414.472	282.019
412.76	279.04
411.049	295.05
409.337	264.322
407.625	280.329
405.912	275.892
404.199	265.62
402.486	271.402
400.772	242.17
399.058	256.706
397.344	252.278
395.629	237.647
393.914	239.057
392.198	246.295
390.483	246.244
388.766	230.169
387.05	247.6
385.333	225.707
383.616	225.661
381.898	219.793
380.181	228.479
378.462	238.618
376.744	213.839
375.025	202.16
373.305	232.655
371.586	207.893
369.866	191.862
368.146	204.902
366.425	190.331
364.704	217.892
362.982	207.681
361.261	198.926
359.539	201.789
357.816	179.977
356.093	194.451
354.37	185.706
352.647	169.713
350.923	197.232
349.199	178.343
347.474	185.555
345.749	178.27
344.024	189.826
342.298	179.646
340.572	181.058
338.846	182.469
337.119	194.015
335.392	185.289
333.665	196.83
331.937	192.449
330.209	176.496
328.481	183.692
326.752	185.1
325.023	187.954
323.293	187.916
321.563	167.644
319.833	193.618
318.103	163.242
316.372	170.43
314.64	176.171
312.909	170.36
311.177	183.316
309.444	191.938
307.712	171.698
305.979	168.778
304.245	186.051
302.512	171.593
300.777	181.649
299.043	175.847
297.308	170.046
295.573	159.926
293.837	165.655
292.102	164.181
290.365	161.268
288.629	164.114
286.892	162.641
285.154	141.022
283.417	146.748
281.679	155.349
279.94	156.755
278.202	136.593
276.463	135.128
274.723	145.161
272.983	159.5
271.243	143.664
269.503	139.326
267.762	134.989
266.02	146.447
264.279	129.191
262.537	130.6
260.795	127.703
259.052	131.981
257.309	120.479
255.565	106.115
253.822	129.032
252.078	123.272
250.333	121.813
248.588	128.952
246.843	118.898
245.098	127.467
243.352	120.281
241.605	114.529
239.859	108.78
238.112	98.7407
236.364	95.8589
234.617	94.4086
232.869	117.271
231.12	111.528
229.371	115.793
227.622	125.774
225.873	121.461
224.123	130.008
222.372	115.697
220.622	129.954
218.871	102.799
217.119	145.602
215.368	135.581
213.616	132.699
211.863	114.126
210.11	115.529
208.357	141.172
206.604	124.035
204.85	126.86
203.096	122.558
201.341	118.258
199.586	123.931
197.831	142.42
196.075	126.727
194.319	145.208
192.562	142.331
190.805	153.685
189.048	165.034
187.291	167.845
185.533	173.498
183.774	152.134
182.016	154.945
180.257	147.807
178.497	157.722
176.737	166.213
174.977	166.178
173.217	170.403
171.456	173.206
169.694	183.106
167.933	160.361
166.171	183.028
164.408	181.571
162.646	147.495
160.882	178.658
159.119	147.433
157.355	153.071
155.591	171.46
153.826	151.589
152.061	126.061
150.296	116.122
148.53	96.2756
146.764	79.2689
144.997	94.8194
143.23	90.5544
141.463	56.5844
139.696	69.3011
137.928	63.6303
136.159	48.0659
134.39	67.8433
132.621	67.8287
130.852	64.9886
129.082	53.6747
127.311	29.656
125.541	52.2397
123.77	49.4053
121.998	36.6932
120.226	32.4524
118.454	26.8027
116.682	12.6933
114.909	28.2012
113.135	31.0146
111.362	23.9606
109.587	23.9554
107.813	25.359
106.038	29.5791
104.263	18.3069
102.487	29.5662
100.711	11.2609
98.9345	15.4803
97.1576	16.8839
95.3804	18.2869
93.6028	16.8766
91.8248	30.9336
90.0464	30.9268
88.2676	25.2982
86.4885	15.4566
84.7089	23.8822
82.9289	18.2588
81.1486	16.8506
79.3678	19.6547
77.5867	14.036
75.8052	21.0493
74.0232	15.4327
72.2409	15.4293
70.4582	22.4376
68.6751	16.8245
66.8916	22.4276
65.1076	16.817
63.3233	29.4232
61.5386	19.6111
59.7535	21.0071
57.968	14.0016
56.1821	26.5971
54.3958	15.3949
52.6091	23.7867
50.822	26.5792
49.0345	16.7831
47.2465	20.9741
45.4582	23.7653
43.6695	25.1575
41.8803	22.3572
40.0908	16.7641
38.3009	18.157
36.5105	23.7383
34.7197	23.7329
32.9286	19.5403
31.137	15.3496
29.345	20.9264
27.5526	23.7112
25.7598	22.3113
23.9666	18.1238
22.1729	20.9072
20.3789	15.3284
18.5844	12.5385
