991.312	3.12257
989.711	587.043
988.11	641.597
986.508	599.363
984.906	622.687
983.304	653.805
981.701	622.507
980.099	634.897
978.496	662.88
976.893	654.985
975.29	651.771
973.686	665.706
972.082	674.961
970.478	606.284
968.874	710.602
967.269	669.986
965.665	665.212
964.06	688.476
962.454	689.93
960.849	677.368
959.243	685.05
957.637	697.399
956.031	689.51
954.425	711.192
952.818	683.074
951.211	729.641
949.604	696.863
947.996	701.42
946.389	656.215
944.781	680.989
943.172	670
941.564	744.5
939.955	694.654
938.346	714.743
936.737	675.791
935.128	683.45
933.518	708.189
931.908	725.156
930.298	714.172
928.687	678.354
927.076	692.213
925.465	758.828
923.854	651.648
922.242	715.145
920.631	702.619
919.018	685.446
917.406	733.399
915.793	708.474
914.181	700.607
912.567	678.794
910.954	694.177
909.34	706.455
907.726	680.004
906.112	669.049
904.498	681.325
902.883	705.981
901.268	654.78
899.652	662.408
898.037	665.391
896.421	655.995
894.805	699.196
893.188	677.424
891.572	664.937
889.955	664.823
888.338	655.434
886.72	673.868
885.102	659.844
883.484	656.64
881.866	648.802
880.247	674.946
878.628	625.413
877.009	653.095
875.389	623.651
873.77	640.519
872.15	609.544
870.529	661.895
868.909	615.5
867.288	618.476
865.666	650.75
864.045	652.176
862.423	648.977
860.801	616.496
859.179	619.468
857.556	616.276
855.933	600.761
854.31	608.354
852.686	640.582
851.063	652.784
849.439	578.779
847.814	581.753
846.189	590.88
844.564	635.389
842.939	627.582
841.314	593.634
839.688	591.989
838.062	568.82
836.435	608.68
834.808	602.422
833.181	576.191
831.554	582.23
829.926	611.306
828.298	569.73
826.67	631.04
825.041	592.546
823.413	620.063
821.783	560.102
820.154	575.34
818.524	567.564
816.894	608.867
815.264	598.02
813.633	623.971
812.002	617.723
810.371	577.762
808.739	556.202
807.107	615.844
805.475	574.374
803.842	575.797
802.21	569.564
800.576	558.741
798.943	572.41
797.309	587.604
795.675	613.502
794.041	567.496
792.406	582.682
790.771	591.746
789.136	594.691
787.5	585.406
785.864	577.654
784.228	580.599
782.592	566.74
780.955	581.905
779.317	583.32
777.68	561.834
776.042	560.2
774.404	555.514
772.766	582.872
771.127	556.825
769.488	541.465
767.848	571.86
766.209	561.077
764.569	577.737
762.928	597.438
761.288	562.275
759.647	546.931
758.005	551.394
756.364	545.196
754.722	563.361
753.08	558.684
751.437	552.487
749.794	540.206
748.151	499.022
746.507	550.643
744.864	577.91
743.219	539.784
741.575	576.163
739.93	527.413
738.285	577.457
736.639	562.15
734.994	527.102
733.348	539.148
731.701	534.487
730.054	549.563
728.407	537.312
726.76	558.451
725.112	515.858
723.464	544.578
721.816	542.954
720.167	541.33
718.518	562.447
716.869	541.116
715.219	556.163
713.569	546.961
711.918	586.238
710.268	580.064
708.617	513.323
706.965	558.638
705.314	552.472
703.662	550.849
702.009	555.278
700.357	564.244
698.704	597.404
697.05	585.188
695.397	557.859
693.743	569.839
692.089	604.483
690.434	556.013
688.779	611.794
687.124	620.733
685.468	629.669
683.812	655.207
682.156	633.945
680.499	644.381
678.842	615.585
677.185	610.935
675.527	640.976
673.869	678.544
672.211	649.764
670.552	642.097
668.893	679.641
667.234	644.851
665.574	717.026
663.915	709.352
662.254	685.117
660.594	680.462
658.933	733.005
657.271	741.886
655.61	756.781
653.948	691.946
652.285	780.538
650.623	753.315
648.96	751.659
647.296	792.088
645.633	769.387
643.969	776.743
642.304	748.046
640.64	774.927
638.975	804.799
637.309	815.145
635.644	810.477
633.978	789.304
632.311	804.146
630.645	788.983
628.978	811.318
627.31	808.155
625.642	830.476
623.974	792.839
622.306	878.089
620.637	788.022
618.968	807.333
617.299	786.204
615.629	809.999
613.959	833.785
612.288	802.186
610.618	830.453
608.947	839.26
607.275	801.696
605.603	798.542
603.931	787.914
602.259	789.248
600.586	793.57
598.913	779.961
597.239	776.814
595.565	736.329
593.891	758.578
592.217	773.353
590.542	759.761
588.867	752.144
587.191	749.007
585.515	711.56
583.839	697.992
582.162	660.571
580.485	679.817
578.808	640.924
577.131	640.793
575.453	646.622
573.774	625.635
572.096	591.254
570.417	607.512
568.737	574.636
567.058	571.542
565.378	571.425
563.697	598.088
562.017	602.429
560.336	590.408
558.654	590.287
556.972	591.653
555.29	573.697
553.608	572.094
551.925	621.003
550.242	606.022
548.559	592.533
546.875	604.29
545.191	641.277
543.506	614.431
541.821	673.659
540.136	718.027
538.451	777.209
536.765	774.084
535.079	852.504
533.392	890.87
531.705	908.472
530.018	986.816
528.33	1002.91
526.642	1113.79
524.954	1147.62
523.266	1333.92
521.577	1629.69
519.887	2193.19
518.198	2000.4
516.508	1767.74
514.817	1712.66
513.127	1805.46
511.435	1890.84
509.744	2029.39
508.052	2130.94
506.36	2161.53
504.668	2285.17
502.975	2426.48
501.282	2519.01
499.588	2604.12
497.895	2731.99
496.2	2799.31
494.506	2928.57
492.811	2942.72
491.116	3095.49
489.42	3115.5
487.724	3235.74
486.028	3291.09
484.332	3281.57
482.635	3353.09
480.937	3490.86
479.24	3451.86
477.542	3490.9
475.843	3425.42
474.145	3488
472.446	3460.8
470.746	3490.99
469.047	3575.58
467.346	3391.04
465.646	3319.77
463.945	3305.86
462.244	3284.61
460.543	3242.8
458.841	3154
457.139	3032.92
455.436	3030.83
453.733	2965.61
452.03	2907.76
450.327	2745.74
448.623	2724.63
446.919	2614.06
445.214	2509.39
443.509	2554.34
441.804	2260.61
440.098	2314.38
438.392	2215.72
436.686	2288.53
434.979	2147.43
433.272	2103.06
431.565	2022.1
429.857	2001.19
428.149	1965.65
426.44	1854.04
424.732	1738.08
423.022	1825.49
421.313	1652.55
419.603	1707.77
417.893	1651.87
416.182	1572.61
414.472	1585.44
412.76	1601.19
411.049	1540.98
409.337	1558.19
407.625	1538.89
405.912	1453.91
404.199	1468.21
402.486	1460.61
400.772	1391.75
399.058	1362.29
397.344	1334.31
395.629	1339.86
393.914	1361.46
392.198	1317.46
390.483	1292.42
388.766	1241.17
387.05	1294.8
385.333	1277.06
383.616	1247.69
381.898	1215.41
380.181	1184.6
378.462	1204.73
376.744	1173.93
375.025	1131.52
373.305	1121.11
371.586	1136.87
369.866	1106.11
368.146	1108.79
366.425	1076.6
364.704	1072.03
362.982	1055.83
361.261	1064.33
359.539	1074.27
357.816	1039.22
356.093	1020.14
354.37	1088.12
352.647	976.21
350.923	993.413
349.199	941.013
347.474	1022
345.749	979.761
344.024	992.602
342.298	977.912
340.572	958.882
338.846	980.408
337.119	1027.99
335.392	945.266
333.665	952.309
331.937	1007.1
330.209	959.153
328.481	970.528
326.752	955.869
325.023	984.59
323.293	1030.64
321.563	914.817
319.833	1005.66
318.103	976.561
316.372	956.141
314.64	937.173
312.909	899.444
311.177	968.545
309.444	894.747
307.712	937.849
305.979	926.116
304.245	892.755
302.512	894.014
300.777	892.389
299.043	931.123
297.308	889.141
295.573	863.025
293.837	884.456
292.102	894.355
290.365	859.615
288.629	794.657
286.892	834.794
285.154	841.818
283.417	792.729
281.679	756.606
279.94	766.517
278.202	740.479
276.463	723.077
274.723	743.049
272.983	731.401
271.243	739.871
269.503	715.301
267.762	729.514
266.02	700.649
264.279	706.247
262.537	651.565
260.795	654.3
259.052	631.213
257.309	652.597
255.565	652.462
253.822	637.991
252.078	629.259
250.333	603.333
248.588	590.314
246.843	570.137
245.098	620.146
243.352	531.24
241.605	562.626
239.859	536.745
238.112	512.307
236.364	527.939
234.617	539.273
232.869	534.871
231.12	539.05
229.371	538.938
227.622	563.124
225.873	615.878
224.123	598.607
222.372	595.626
220.622	619.779
218.871	625.362
217.119	655.208
215.368	649.364
213.616	652.082
211.863	683.331
210.11	677.484
208.357	687.325
206.604	709.992
204.85	655.68
203.096	651.268
201.341	656.831
199.586	686.608
197.831	687.889
196.075	704.832
194.319	711.802
192.562	797.052
190.805	812.538
189.048	803.832
187.291	840.646
185.533	823.404
183.774	877.26
182.016	901.242
180.257	932.319
178.497	868.182
176.737	924.824
174.977	931.731
173.217	958.515
171.456	888.747
169.694	933.981
167.933	918.173
166.171	900.953
164.408	902.181
162.646	893.481
160.882	867.769
159.119	827.892
157.355	790.866
155.591	765.192
153.826	733.862
152.061	638.806
150.296	525.38
148.53	471.467
146.764	427.486
144.997	369.371
143.23	360.803
141.463	299.898
139.696	287.105
137.928	279.973
136.159	254.467
134.39	271.373
132.621	254.358
130.852	267.018
129.082	237.299
127.311	210.416
125.541	206.135
123.77	191.975
121.998	141.128
120.226	110.056
118.454	76.1761
116.682	63.4663
114.909	50.7621
113.135	26.7853
111.362	35.2362
109.587	32.4103
107.813	25.359
106.038	23.945
104.263	19.7151
102.487	29.5662
100.711	25.337
98.9345	22.5168
97.1576	28.1399
95.3804	28.1337
93.6028	30.9403
91.8248	25.3093
90.0464	23.898
88.2676	30.92
86.4885	12.6463
84.7089	23.8822
82.9289	29.4951
81.1486	18.2548
79.3678	18.2508
77.5867	32.2827
75.8052	21.0493
74.0232	23.8506
72.2409	32.2613
70.4582	22.4376
68.6751	21.0306
66.8916	18.2225
65.1076	29.4297
63.3233	19.6154
61.5386	26.615
59.7535	18.2062
57.968	37.8044
56.1821	44.7951
54.3958	27.9907
52.6091	26.5852
50.822	19.5847
49.0345	23.776
47.2465	34.9568
45.4582	30.755
43.6695	23.7599
41.8803	34.9331
40.0908	20.9551
38.3009	27.9338
36.5105	30.7202
34.7197	26.525
32.9286	27.9147
31.137	37.6762
29.345	19.5313
27.5526	23.7112
25.7598	23.7058
23.9666	29.2768
22.1729	20.9072
20.3789	25.0829
18.5844	25.0771
