991.312	0
989.711	98.361
988.11	82.7364
986.508	101.455
984.906	87.3946
983.304	76.4593
981.701	107.652
980.099	87.3568
978.496	79.5455
976.893	68.6175
975.29	93.5556
973.686	95.1009
972.082	98.2045
970.478	104.424
968.874	88.8253
967.269	96.6026
965.665	109.051
964.06	85.6701
962.454	101.231
960.849	87.2014
959.243	90.302
957.637	87.1749
956.031	104.283
954.425	102.71
952.818	94.9147
951.211	102.679
949.604	99.5518
947.996	102.647
946.389	91.7457
944.781	87.0671
943.172	79.2808
941.564	111.908
939.955	113.445
938.346	91.6736
936.737	97.8732
935.128	93.1977
933.518	104.054
931.908	99.379
930.298	105.573
928.687	69.8534
927.076	88.4667
925.465	83.7969
923.854	111.711
922.242	97.7313
920.631	93.0622
919.018	100.801
917.406	106.986
915.793	93.0163
914.181	102.301
912.567	91.4358
910.954	99.1681
909.34	94.5038
907.726	78.9982
906.112	102.216
904.498	89.811
902.883	89.7959
901.268	99.0684
899.652	99.0517
898.037	83.5607
896.421	100.565
894.805	99.0012
893.188	95.8911
891.572	98.9674
889.955	85.0355
888.338	92.7501
886.72	85.0063
885.102	89.6275
883.484	88.067
881.866	83.4174
880.247	103.481
878.628	81.8442
877.009	98.8135
875.389	89.534
873.77	81.8013
872.15	91.0458
870.529	91.0298
868.909	89.4711
867.288	75.5743
865.666	72.4769
864.045	77.0894
862.423	83.2417
860.801	84.7682
859.179	80.1302
857.556	83.1972
855.933	87.8036
854.31	92.4083
852.686	87.7721
851.063	89.2959
849.439	73.8867
847.814	92.3417
846.189	100.019
844.564	56.9234
842.939	89.2151
841.314	81.5094
839.688	78.4193
838.062	76.8676
836.435	89.1501
834.808	67.6188
833.181	86.0445
831.554	79.8838
829.926	99.8363
828.298	73.7117
826.67	98.2642
825.041	81.36
823.413	78.2753
821.783	75.1918
820.154	67.5066
818.524	85.9015
816.894	69.0152
815.264	73.6025
813.633	79.7211
812.002	62.8453
810.371	81.2238
808.739	72.0152
807.107	65.8739
805.475	78.1148
803.842	84.2256
802.21	78.0854
800.576	67.3551
798.943	78.0559
797.309	68.8599
795.675	82.6162
794.041	81.0709
792.406	65.762
790.771	77.982
789.136	81.0247
787.5	81.0092
785.864	87.1065
784.228	74.8668
782.592	79.4352
780.955	85.5293
779.317	70.2427
777.68	68.7025
776.042	76.3215
774.404	73.2546
772.766	76.2921
771.127	80.8541
769.488	86.9395
767.848	73.1981
766.209	97.5786
764.569	77.7429
762.928	77.7279
761.288	79.2366
759.647	76.1742
758.005	71.5899
756.364	85.282
754.722	68.5169
753.08	79.1596
751.437	80.6662
749.794	79.1288
748.151	74.5491
746.507	65.4078
744.864	68.4367
743.219	79.0669
741.575	71.4503
739.93	77.516
738.285	80.54
736.639	86.6015
734.994	63.7991
733.348	71.3802
731.701	80.4767
730.054	72.8702
728.407	71.338
726.76	81.9466
725.112	66.7581
723.464	65.228
721.816	69.765
720.167	84.9145
718.518	77.3175
716.869	75.7865
715.219	83.3486
713.569	77.2716
711.918	78.771
710.268	66.6392
708.617	92.3678
706.965	72.6684
705.314	65.0858
703.662	63.5595
702.009	86.2421
700.357	78.6613
698.704	75.6208
697.05	83.1663
695.397	83.1497
693.743	101.271
692.089	89.1613
690.434	84.6107
688.779	93.6574
687.124	70.9841
685.468	86.0699
683.812	86.0526
682.156	90.5635
680.499	81.4908
678.842	78.4569
677.185	89.0005
675.527	87.4744
673.869	94.9962
672.211	81.4089
670.552	96.4652
668.893	88.911
667.234	72.3198
665.574	82.8497
663.915	90.3633
662.254	93.3565
660.594	87.3159
658.933	84.288
657.271	100.824
655.61	90.2721
653.948	84.2369
652.285	97.7552
650.623	81.1956
648.96	100.722
647.296	79.6597
645.633	111.2
643.969	102.164
642.304	85.6197
640.64	82.5988
638.975	105.104
637.309	100.58
635.644	97.5574
633.978	94.5364
632.311	106.519
630.645	83.9982
628.978	94.4788
627.31	89.9616
625.642	106.433
623.974	98.9175
622.306	97.3989
620.637	80.8996
618.968	104.848
617.299	89.8518
615.629	98.8169
613.959	89.8153
612.288	94.2868
610.618	101.749
608.947	91.2564
607.275	82.2636
605.603	118.136
603.931	100.171
602.259	103.14
600.586	80.7021
598.913	107.581
597.239	98.5956
595.565	101.563
593.891	83.6228
592.217	94.0564
590.542	83.5886
588.867	91.0333
587.191	101.459
585.515	92.4879
583.839	86.5033
582.162	80.5211
580.485	90.9404
578.808	81.9787
577.131	81.962
575.453	84.925
573.774	86.3973
572.096	67.0187
570.417	68.494
568.737	84.8556
567.058	74.4195
565.378	72.9162
563.697	87.7791
562.017	72.8864
560.336	63.9485
558.654	87.7253
556.972	71.3551
555.29	86.2032
553.608	72.8119
551.925	98.0531
550.242	75.7528
548.559	71.2822
546.875	68.2981
545.191	87.5818
543.506	93.5004
541.821	91.9975
540.136	91.9786
538.451	94.9263
536.765	100.839
535.079	102.3
533.392	115.62
531.705	120.043
530.018	115.573
528.33	128.882
526.642	139.223
524.954	149.56
523.266	161.374
521.577	168.742
519.887	213.104
518.198	216.019
516.508	189.348
514.817	192.267
513.127	238.067
511.435	245.41
509.744	251.272
508.052	271.909
506.36	262.989
504.668	291.001
502.975	286.511
501.282	335.179
499.588	360.206
497.895	329.138
496.2	370.389
494.506	362.936
492.811	379.087
491.116	411.454
489.42	384.83
487.724	405.389
486.028	399.411
484.332	378.7
482.635	418.4
480.937	394.747
479.24	424.119
477.542	397.53
475.843	412.169
474.145	412.085
472.446	397.286
470.746	395.734
469.047	413.303
467.346	414.689
465.646	386.67
463.945	391
462.244	371.815
460.543	384.963
458.841	389.291
457.139	339.275
455.436	345.08
453.733	339.137
452.03	314.114
450.327	316.985
448.623	312.519
446.919	291.918
445.214	275.725
443.509	310.861
441.804	271.214
440.098	255.036
438.392	259.38
436.686	243.211
434.979	241.696
433.272	235.789
431.565	225.491
429.857	221.053
428.149	206.372
426.44	203.403
424.732	196.046
423.022	204.782
421.313	195.966
419.603	181.305
417.893	191.5
416.182	182.692
414.472	175.349
412.76	176.774
411.049	178.198
409.337	166.479
407.625	160.605
405.912	163.492
404.199	159.08
402.486	183.853
400.772	141.509
399.058	151.69
397.344	170.616
395.629	150.17
393.914	172.004
392.198	139.907
390.483	134.05
388.766	139.85
387.05	144.191
385.333	131.056
383.616	144.132
381.898	142.647
380.181	141.162
378.462	130.949
376.744	122.194
375.025	127.986
373.305	113.419
371.586	126.48
369.866	123.548
368.146	117.709
366.425	132.215
364.704	117.661
362.982	130.708
361.261	113.257
359.539	117.589
357.816	113.211
356.093	111.737
354.37	121.87
352.647	133.449
350.923	120.37
349.199	115.995
347.474	111.623
345.749	114.499
344.024	110.128
342.298	114.452
340.572	99.9439
338.846	101.372
337.119	114.382
335.392	107.12
333.665	123.019
331.937	95.5008
330.209	105.608
328.481	95.4618
326.752	96.8884
325.023	111.327
323.293	99.7398
321.563	106.945
319.833	99.699
318.103	106.902
316.372	119.879
314.64	98.1938
312.909	98.1737
311.177	114.031
309.444	98.1335
307.712	95.2277
305.979	100.978
304.245	109.611
302.512	109.589
300.777	79.2914
299.043	109.544
297.308	105.198
295.573	106.617
293.837	102.274
292.102	100.813
290.365	84.9535
288.629	105.09
286.892	103.63
285.154	90.6573
283.417	92.0774
281.679	93.4969
279.94	87.7252
278.202	99.2098
276.463	93.4393
274.723	77.6106
272.983	73.2838
271.243	80.452
269.503	93.3625
267.762	93.3433
266.02	68.9163
264.279	66.0312
262.537	78.9341
260.795	71.7435
259.052	76.0324
257.309	80.3196
255.565	67.3972
253.822	68.817
252.078	78.8365
250.333	67.3555
248.588	73.0728
246.843	63.0302
245.098	77.3393
243.352	54.4127
241.605	60.1279
239.859	67.2721
238.112	68.6892
236.364	54.3677
234.617	67.2304
232.869	48.6247
231.12	57.1936
229.371	68.6181
227.622	54.3114
225.873	70.0186
224.123	77.1474
222.372	67.1329
220.622	61.4067
218.871	71.3883
217.119	62.8087
215.368	69.9315
213.616	62.7825
211.863	61.3429
210.11	71.3141
208.357	84.1331
206.604	64.1559
204.85	65.568
203.096	71.2547
201.341	79.7886
199.586	82.6209
197.831	82.6036
196.075	98.2493
194.319	82.5691
192.562	102.478
190.805	98.1876
189.048	92.4762
187.291	102.414
185.533	99.548
183.774	108.058
182.016	99.5062
180.257	109.434
178.497	92.3598
176.737	90.9197
174.977	102.263
173.217	116.442
171.456	105.06
169.694	99.3596
167.933	105.015
166.171	97.8989
164.408	86.53
162.646	103.53
160.882	100.673
159.119	87.8927
157.355	87.874
155.591	85.0213
153.826	75.0862
152.061	75.0703
150.296	63.7254
148.53	59.4644
146.764	65.1138
144.997	48.1173
143.23	49.522
141.463	41.0237
139.696	43.8436
137.928	29.6941
136.159	38.17
134.39	35.335
132.621	32.5013
130.852	35.3199
129.082	33.8998
127.311	31.0681
125.541	45.1803
123.77	43.759
121.998	28.2255
120.226	26.8085
118.454	22.5707
116.682	19.7451
114.909	19.7408
113.135	18.3268
111.362	21.1417
109.587	28.1828
107.813	23.9502
106.038	18.3109
104.263	23.9398
102.487	21.1187
100.711	14.0761
98.9345	15.4803
97.1576	25.3259
95.3804	32.3538
93.6028	15.4702
91.8248	21.0911
90.0464	15.4634
88.2676	23.8927
86.4885	21.0772
84.7089	22.4774
82.9289	25.2815
81.1486	28.0843
79.3678	16.8469
77.5867	29.4755
75.8052	22.4526
74.0232	23.8506
72.2409	16.832
70.4582	29.4494
68.6751	22.4326
66.8916	14.0173
65.1076	25.2255
63.3233	23.8187
61.5386	16.8095
59.7535	21.0071
57.968	25.2029
56.1821	25.1973
54.3958	22.3925
52.6091	29.3836
50.822	32.1748
49.0345	15.3845
47.2465	13.9827
45.4582	25.1632
43.6695	29.3504
41.8803	26.5491
40.0908	16.7641
38.3009	25.1404
36.5105	20.9456
34.7197	27.9211
32.9286	18.1445
31.137	18.1404
29.345	16.7411
27.5526	20.9216
25.7598	13.9446
23.9666	19.5179
22.1729	19.5134
20.3789	16.7219
18.5844	18.1112
