3.991989e+002;1.031811e+002
4.011274e+002;1.029982e+002
4.030559e+002;1.021882e+002
4.049844e+002;1.026637e+002
4.069129e+002;1.024222e+002
4.088414e+002;1.020696e+002
4.107699e+002;1.028469e+002
4.126984e+002;1.042386e+002
4.146269e+002;1.042578e+002
4.165554e+002;1.031823e+002
4.184839e+002;1.034518e+002
4.204124e+002;1.044660e+002
4.223409e+002;1.048207e+002
4.242694e+002;1.047250e+002
4.261979e+002;1.054751e+002
4.281264e+002;1.060665e+002
4.300549e+002;1.060919e+002
4.319834e+002;1.067509e+002
4.339119e+002;1.076507e+002
4.358404e+002;1.082655e+002
4.377689e+002;1.085890e+002
4.396974e+002;1.094253e+002
4.416259e+002;1.103092e+002
4.435544e+002;1.107715e+002
4.454829e+002;1.115001e+002
4.474114e+002;1.124501e+002
4.493399e+002;1.130699e+002
4.512684e+002;1.137643e+002
4.531969e+002;1.147137e+002
4.551254e+002;1.153370e+002
4.570539e+002;1.158560e+002
4.589824e+002;1.158994e+002
4.609109e+002;1.157461e+002
4.628394e+002;1.157383e+002
4.647679e+002;1.156228e+002
4.666964e+002;1.151103e+002
4.686248e+002;1.140318e+002
4.705533e+002;1.127451e+002
4.724818e+002;1.115026e+002
4.744103e+002;1.102909e+002
4.763388e+002;1.091077e+002
4.782673e+002;1.079969e+002
4.801958e+002;1.068637e+002
4.821243e+002;1.057326e+002
4.840528e+002;1.048683e+002
4.859813e+002;1.043689e+002
4.879098e+002;1.039372e+002
4.898383e+002;1.035629e+002
4.917668e+002;1.032434e+002
4.936953e+002;1.029259e+002
4.956238e+002;1.027513e+002
4.975523e+002;1.026602e+002
4.994808e+002;1.026198e+002
5.014093e+002;1.024561e+002
5.033378e+002;1.022316e+002
5.052663e+002;1.021147e+002
5.071948e+002;1.020022e+002
5.091233e+002;1.020423e+002
5.110518e+002;1.023004e+002
5.129803e+002;1.023776e+002
5.149088e+002;1.023344e+002
5.168373e+002;1.021848e+002
5.187657e+002;1.020469e+002
5.206943e+002;1.020992e+002
5.226227e+002;1.020493e+002
5.245513e+002;1.019179e+002
5.264797e+002;1.019678e+002
5.284083e+002;1.020973e+002
5.303367e+002;1.021153e+002
5.322653e+002;1.020787e+002
5.341937e+002;1.020696e+002
5.361223e+002;1.020894e+002
5.380507e+002;1.021043e+002
5.399792e+002;1.021338e+002
5.419077e+002;1.021271e+002
5.438362e+002;1.020992e+002
5.457647e+002;1.020238e+002
5.476932e+002;1.019675e+002
5.496217e+002;1.019425e+002
5.515502e+002;1.019471e+002
5.534787e+002;1.019667e+002
5.554072e+002;1.019052e+002
5.573357e+002;1.017788e+002
5.592642e+002;1.016830e+002
5.611927e+002;1.015573e+002
5.631212e+002;1.014867e+002
5.650497e+002;1.014643e+002
5.669782e+002;1.013175e+002
5.689067e+002;1.011067e+002
5.708352e+002;1.009155e+002
5.727637e+002;1.006476e+002
5.746922e+002;1.004421e+002
5.766207e+002;1.002379e+002
5.785492e+002;1.000371e+002
5.804777e+002;9.981391e+001
5.824062e+002;9.951054e+001
5.843347e+002;9.918332e+001
5.862632e+002;9.887169e+001
5.881917e+002;9.855223e+001
5.901202e+002;9.824243e+001
5.920486e+002;9.793939e+001
5.939772e+002;9.768629e+001
5.959056e+002;9.744640e+001
5.978342e+002;9.717754e+001
5.997626e+002;9.686179e+001
6.016912e+002;9.659801e+001
6.036196e+002;9.635028e+001
6.055482e+002;9.618121e+001
6.074766e+002;9.605370e+001
6.094052e+002;9.588153e+001
6.113336e+002;9.569431e+001
6.132621e+002;9.543439e+001
6.151906e+002;9.523180e+001
6.171191e+002;9.507875e+001
6.190476e+002;9.500334e+001
6.209761e+002;9.487957e+001
6.229046e+002;9.463585e+001
6.248331e+002;9.441353e+001
6.267616e+002;9.421815e+001
6.286901e+002;9.394411e+001
6.306186e+002;9.367200e+001
6.325471e+002;9.355711e+001
6.344756e+002;9.349699e+001
6.364041e+002;9.348725e+001
6.383326e+002;9.346555e+001
6.402611e+002;9.344789e+001
6.421896e+002;9.341026e+001
6.441181e+002;9.342432e+001
6.460466e+002;9.348127e+001
6.479751e+002;9.356067e+001
6.499036e+002;9.363322e+001
6.518321e+002;9.373132e+001
6.537606e+002;9.385411e+001
6.556891e+002;9.395185e+001
6.576176e+002;9.404458e+001
6.595461e+002;9.419061e+001
6.614745e+002;9.438180e+001
6.634031e+002;9.460947e+001
6.653315e+002;9.480640e+001
6.672601e+002;9.497320e+001
6.691885e+002;9.516728e+001
6.711171e+002;9.539408e+001
6.730455e+002;9.561876e+001
6.749741e+002;9.585304e+001
6.769025e+002;9.609377e+001
6.788311e+002;9.633491e+001
6.807595e+002;9.656139e+001
6.826880e+002;9.678665e+001
6.846165e+002;9.700610e+001
6.865450e+002;9.722876e+001
6.884735e+002;9.747370e+001
6.904020e+002;9.773109e+001
6.923305e+002;9.796269e+001
6.942590e+002;9.813695e+001
6.961875e+002;9.834209e+001
6.981160e+002;9.855144e+001
7.000445e+002;9.875638e+001
7.019730e+002;9.900121e+001
7.039015e+002;9.922903e+001
7.058300e+002;9.941546e+001
7.077585e+002;9.959180e+001
7.096870e+002;9.977163e+001
7.116155e+002;9.995415e+001
7.135440e+002;1.001599e+002
7.154725e+002;1.003871e+002
7.174010e+002;1.005753e+002
7.193295e+002;1.007247e+002
7.212580e+002;1.008476e+002
7.231865e+002;1.009579e+002
7.251150e+002;1.011109e+002
7.270435e+002;1.012769e+002
7.289720e+002;1.014378e+002
7.309005e+002;1.015594e+002
7.328290e+002;1.016432e+002
7.347574e+002;1.017283e+002
7.366860e+002;1.018209e+002
7.386144e+002;1.018862e+002
7.405430e+002;1.019668e+002
7.424714e+002;1.020652e+002
7.444000e+002;1.021448e+002
7.463284e+002;1.022067e+002
7.482570e+002;1.022439e+002
7.501854e+002;1.022614e+002
7.521140e+002;1.022877e+002
7.540424e+002;1.023291e+002
7.559709e+002;1.024071e+002
7.578994e+002;1.024596e+002
7.598279e+002;1.024773e+002
7.617564e+002;1.024707e+002
7.636849e+002;1.024544e+002
7.656134e+002;1.024665e+002
7.675419e+002;1.025368e+002
7.694704e+002;1.026316e+002
7.713989e+002;1.027588e+002
7.733274e+002;1.028804e+002
7.752559e+002;1.030182e+002
7.771844e+002;1.031972e+002
7.791129e+002;1.034041e+002
7.810414e+002;1.036339e+002
7.829699e+002;1.038786e+002
7.848984e+002;1.041061e+002
7.868269e+002;1.042942e+002
7.887554e+002;1.044520e+002
7.906839e+002;1.046371e+002
7.926124e+002;1.048260e+002
7.945409e+002;1.050034e+002
7.964694e+002;1.051603e+002
7.983979e+002;1.052921e+002
8.003264e+002;1.053937e+002
8.022549e+002;1.054619e+002
8.041833e+002;1.055403e+002
8.061119e+002;1.056142e+002
8.080403e+002;1.056767e+002
8.099689e+002;1.057370e+002
8.118973e+002;1.057577e+002
8.138259e+002;1.057355e+002
8.157543e+002;1.056805e+002
8.176829e+002;1.056426e+002
8.196113e+002;1.056348e+002
8.215399e+002;1.056036e+002
8.234683e+002;1.055376e+002
8.253969e+002;1.054402e+002
8.273253e+002;1.053170e+002
8.292538e+002;1.051648e+002
8.311823e+002;1.050339e+002
8.331108e+002;1.049368e+002
8.350393e+002;1.048492e+002
8.369678e+002;1.047436e+002
8.388963e+002;1.046245e+002
8.408248e+002;1.045105e+002
8.427533e+002;1.043962e+002
8.446818e+002;1.042866e+002
8.466103e+002;1.041972e+002
8.485388e+002;1.041321e+002
8.504673e+002;1.040604e+002
8.523958e+002;1.039375e+002
8.543243e+002;1.037813e+002
8.562528e+002;1.036426e+002
8.581813e+002;1.035303e+002
8.601098e+002;1.034327e+002
8.620383e+002;1.033391e+002
8.639668e+002;1.032168e+002
8.658953e+002;1.030733e+002
8.678238e+002;1.029500e+002
8.697523e+002;1.028377e+002
8.716808e+002;1.027505e+002
8.736093e+002;1.026888e+002
8.755378e+002;1.026197e+002
8.774662e+002;1.025454e+002
8.793948e+002;1.024868e+002
8.813232e+002;1.024231e+002
8.832518e+002;1.023903e+002
8.851802e+002;1.024192e+002
8.871088e+002;1.024402e+002
8.890372e+002;1.024484e+002
8.909658e+002;1.024624e+002
8.928942e+002;1.024588e+002
8.948227e+002;1.024662e+002
8.967512e+002;1.024882e+002
8.986797e+002;1.025104e+002
9.006082e+002;1.025595e+002
9.025367e+002;1.025940e+002
9.044652e+002;1.026033e+002
9.063937e+002;1.025950e+002
9.083222e+002;1.025718e+002
9.102507e+002;1.025963e+002
9.121792e+002;1.026404e+002
9.141077e+002;1.026571e+002
9.160362e+002;1.026493e+002
9.179647e+002;1.026327e+002
9.198932e+002;1.026012e+002
9.218217e+002;1.025887e+002
9.237502e+002;1.025893e+002
9.256786e+002;1.026093e+002
9.276072e+002;1.026230e+002
9.295356e+002;1.025857e+002
9.314642e+002;1.025415e+002
9.333926e+002;1.025327e+002
9.353212e+002;1.025082e+002
9.372496e+002;1.024958e+002
9.391782e+002;1.025145e+002
9.411066e+002;1.025035e+002
9.430352e+002;1.024735e+002
9.449636e+002;1.024321e+002
9.468922e+002;1.024060e+002
9.488206e+002;1.023958e+002
9.507491e+002;1.024137e+002
9.526776e+002;1.024192e+002
9.546061e+002;1.023979e+002
9.565346e+002;1.023674e+002
9.584631e+002;1.023211e+002
9.603916e+002;1.022961e+002
9.623201e+002;1.023053e+002
9.642486e+002;1.023187e+002
9.661771e+002;1.023231e+002
9.681056e+002;1.023213e+002
9.700341e+002;1.023138e+002
9.719626e+002;1.022990e+002
9.738911e+002;1.022935e+002
9.758196e+002;1.023051e+002
9.777481e+002;1.023366e+002
9.796766e+002;1.023751e+002
9.816051e+002;1.023992e+002
9.835336e+002;1.024205e+002
9.854621e+002;1.024519e+002
9.873906e+002;1.025145e+002
9.893191e+002;1.026271e+002
9.912476e+002;1.027614e+002
9.931761e+002;1.029017e+002
9.951046e+002;1.030528e+002
9.970331e+002;1.032238e+002
9.989615e+002;1.034533e+002
1.000890e+003;1.037659e+002
1.002819e+003;1.041476e+002
1.004747e+003;1.045859e+002
1.006676e+003;1.050844e+002
1.008604e+003;1.056379e+002
1.010533e+003;1.063015e+002
1.012461e+003;1.070889e+002
1.014390e+003;1.079958e+002
1.016318e+003;1.090230e+002
1.018247e+003;1.101507e+002
1.020175e+003;1.113728e+002
1.022104e+003;1.127037e+002
1.024032e+003;1.141447e+002
1.025961e+003;1.156990e+002
1.027889e+003;1.173710e+002
1.029818e+003;1.191306e+002
1.031746e+003;1.209505e+002
1.033675e+003;1.228274e+002
1.035603e+003;1.247289e+002
1.037531e+003;1.266906e+002
1.039460e+003;1.287200e+002
1.041389e+003;1.307849e+002
1.043317e+003;1.328701e+002
1.045245e+003;1.349422e+002
1.047174e+003;1.369966e+002
1.049103e+003;1.390662e+002
1.051031e+003;1.411233e+002
1.052959e+003;1.431747e+002
1.054888e+003;1.452251e+002
1.056817e+003;1.472108e+002
1.058745e+003;1.491226e+002
1.060673e+003;1.509635e+002
1.062602e+003;1.527376e+002
1.064531e+003;1.544297e+002
1.066459e+003;1.560506e+002
1.068387e+003;1.575889e+002
1.070316e+003;1.590228e+002
1.072245e+003;1.603076e+002
1.074173e+003;1.614091e+002
1.076101e+003;1.623675e+002
1.078030e+003;1.632255e+002
1.079958e+003;1.639030e+002
1.081887e+003;1.644021e+002
1.083815e+003;1.646939e+002
1.085744e+003;1.647228e+002
1.087672e+003;1.645154e+002
1.089601e+003;1.640581e+002
1.091529e+003;1.633454e+002
1.093458e+003;1.623761e+002
1.095386e+003;1.610911e+002
1.097315e+003;1.594568e+002
1.099243e+003;1.574991e+002
1.101172e+003;1.552121e+002
1.103100e+003;1.526391e+002
1.105029e+003;1.498506e+002
1.106957e+003;1.468653e+002
1.108886e+003;1.437578e+002
1.110814e+003;1.406027e+002
1.112743e+003;1.374700e+002
1.114671e+003;1.345003e+002
1.116600e+003;1.317952e+002
1.118528e+003;1.294029e+002
1.120457e+003;1.273623e+002
1.122385e+003;1.256284e+002
1.124314e+003;1.241512e+002
1.126242e+003;1.229192e+002
1.128171e+003;1.219106e+002
1.130099e+003;1.211080e+002
1.132028e+003;1.204953e+002
1.133956e+003;1.200063e+002
1.135885e+003;1.195892e+002
1.137813e+003;1.192261e+002
1.139742e+003;1.189110e+002
1.141670e+003;1.186520e+002
1.143599e+003;1.184802e+002
1.145527e+003;1.183331e+002
1.147456e+003;1.181913e+002
1.149384e+003;1.180439e+002
1.151313e+003;1.178990e+002
1.153241e+003;1.177567e+002
1.155170e+003;1.176465e+002
1.157098e+003;1.175599e+002
1.159027e+003;1.174895e+002
1.160955e+003;1.174096e+002
1.162884e+003;1.172959e+002
1.164812e+003;1.171887e+002
1.166741e+003;1.170893e+002
1.168669e+003;1.170054e+002
1.170598e+003;1.169528e+002
1.172526e+003;1.168926e+002
1.174455e+003;1.168031e+002
1.176383e+003;1.167024e+002
1.178312e+003;1.165888e+002
1.180240e+003;1.164762e+002
1.182169e+003;1.164747e+002
1.184097e+003;1.164082e+002
1.186026e+003;1.163255e+002
1.187954e+003;1.162498e+002
1.189883e+003;1.161400e+002
1.191811e+003;1.160350e+002
1.193740e+003;1.159646e+002
1.195668e+003;1.159028e+002
1.197597e+003;1.158447e+002
1.199525e+003;1.157699e+002
1.201454e+003;1.156593e+002
1.203382e+003;1.155462e+002
1.205311e+003;1.154488e+002
1.207239e+003;1.153657e+002
1.209168e+003;1.152995e+002
1.211096e+003;1.152223e+002
1.213025e+003;1.151152e+002
1.214953e+003;1.149964e+002
1.216882e+003;1.148740e+002
1.218810e+003;1.147674e+002
1.220739e+003;1.146907e+002
1.222667e+003;1.146110e+002
1.224596e+003;1.145123e+002
1.226524e+003;1.144002e+002
1.228453e+003;1.142703e+002
1.230381e+003;1.141505e+002
1.232310e+003;1.140615e+002
1.234238e+003;1.139828e+002
1.236167e+003;1.139032e+002
1.238095e+003;1.138147e+002
1.240024e+003;1.137019e+002
1.241952e+003;1.135913e+002
1.243881e+003;1.135063e+002
1.245809e+003;1.134379e+002
1.247738e+003;1.133831e+002
1.249666e+003;1.133209e+002
1.251595e+003;1.132295e+002
1.253523e+003;1.131265e+002
1.255452e+003;1.130263e+002
1.257380e+003;1.129295e+002
1.259309e+003;1.128511e+002
1.261237e+003;1.127689e+002
1.263166e+003;1.126552e+002
1.265094e+003;1.125250e+002
1.267023e+003;1.123820e+002
1.268951e+003;1.122491e+002
1.270880e+003;1.121519e+002
1.272808e+003;1.120640e+002
1.274737e+003;1.119732e+002
1.276665e+003;1.118800e+002
1.278594e+003;1.117733e+002
1.280522e+003;1.116764e+002
1.282451e+003;1.116109e+002
1.284379e+003;1.115642e+002
1.286308e+003;1.115263e+002
1.288236e+003;1.114817e+002
1.290165e+003;1.114169e+002
1.292093e+003;1.113494e+002
1.294022e+003;1.112951e+002
1.295950e+003;1.112578e+002
1.297879e+003;1.112433e+002
1.299807e+003;1.112314e+002
1.301736e+003;1.111958e+002
1.303664e+003;1.111468e+002
1.305593e+003;1.110968e+002
1.307521e+003;1.110551e+002
1.309450e+003;1.110427e+002
1.311378e+003;1.110395e+002
1.313307e+003;1.110215e+002
1.315235e+003;1.109940e+002
1.317164e+003;1.109506e+002
1.319092e+003;1.109094e+002
1.321021e+003;1.108929e+002
1.322949e+003;1.108878e+002
1.324878e+003;1.108867e+002
1.326806e+003;1.108796e+002
1.328735e+003;1.108475e+002
1.330663e+003;1.108076e+002
1.332592e+003;1.107854e+002
1.334520e+003;1.107786e+002
1.336449e+003;1.107867e+002
1.338377e+003;1.107905e+002
1.340306e+003;1.107664e+002
1.342234e+003;1.107355e+002
1.344163e+003;1.107098e+002
1.346091e+003;1.106955e+002
1.348020e+003;1.107032e+002
1.349948e+003;1.107172e+002
1.351877e+003;1.107123e+002
1.353805e+003;1.106938e+002
1.355734e+003;1.106681e+002
1.357662e+003;1.106433e+002
1.359591e+003;1.106447e+002
1.361519e+003;1.106586e+002
1.363448e+003;1.106601e+002
1.365376e+003;1.106525e+002
1.367305e+003;1.106314e+002
1.369233e+003;1.106038e+002
1.371161e+003;1.105931e+002
1.373090e+003;1.105961e+002
1.375019e+003;1.106086e+002
1.376947e+003;1.106180e+002
1.378875e+003;1.106024e+002
1.380804e+003;1.105739e+002
1.382733e+003;1.105561e+002
1.384661e+003;1.105473e+002
1.386589e+003;1.105473e+002
1.388518e+003;1.105641e+002
1.390447e+003;1.105724e+002
1.392375e+003;1.105482e+002
1.394303e+003;1.105209e+002
1.396232e+003;1.105044e+002
1.398161e+003;1.105240e+002
1.400089e+003;1.105462e+002
1.402017e+003;1.105441e+002
1.403946e+003;1.105347e+002
1.405875e+003;1.105165e+002
1.407803e+003;1.104861e+002
1.409731e+003;1.104833e+002
1.411660e+003;1.104939e+002
1.413589e+003;1.105021e+002
1.415517e+003;1.104997e+002
1.417445e+003;1.104748e+002
1.419374e+003;1.104380e+002
1.421302e+003;1.104446e+002
1.423231e+003;1.104642e+002
1.425159e+003;1.104753e+002
1.427088e+003;1.104838e+002
1.429016e+003;1.104786e+002
1.430945e+003;1.104534e+002
1.432873e+003;1.104379e+002
1.434802e+003;1.103984e+002
1.436730e+003;1.103750e+002
1.438659e+003;1.104414e+002
1.440587e+003;1.104664e+002
1.442516e+003;1.104473e+002
1.444444e+003;1.104328e+002
1.446373e+003;1.104013e+002
1.448301e+003;1.103944e+002
1.450230e+003;1.104255e+002
1.452158e+003;1.104311e+002
1.454087e+003;1.104172e+002
1.456015e+003;1.104004e+002
1.457944e+003;1.103618e+002
1.459872e+003;1.103521e+002
1.461801e+003;1.103691e+002
1.463729e+003;1.103709e+002
1.465658e+003;1.103793e+002
1.467586e+003;1.103668e+002
1.469515e+003;1.103265e+002
1.471443e+003;1.102947e+002
1.473372e+003;1.103106e+002
1.475300e+003;1.103319e+002
1.477229e+003;1.103418e+002
1.479157e+003;1.103258e+002
1.481086e+003;1.102988e+002
1.483014e+003;1.102860e+002
1.484943e+003;1.102696e+002
1.486871e+003;1.102742e+002
1.488800e+003;1.102884e+002
1.490728e+003;1.102851e+002
1.492657e+003;1.102712e+002
1.494585e+003;1.102611e+002
1.496514e+003;1.102347e+002
1.498442e+003;1.102319e+002
1.500371e+003;1.102380e+002
1.502299e+003;1.102277e+002
1.504228e+003;1.101853e+002
1.506156e+003;1.101739e+002
1.508085e+003;1.101774e+002
1.510013e+003;1.101755e+002
1.511942e+003;1.101885e+002
1.513870e+003;1.101799e+002
1.515799e+003;1.101815e+002
1.517727e+003;1.101707e+002
1.519656e+003;1.101357e+002
1.521584e+003;1.101024e+002
1.523513e+003;1.100975e+002
1.525441e+003;1.101038e+002
1.527370e+003;1.101301e+002
1.529298e+003;1.101248e+002
1.531227e+003;1.100982e+002
1.533155e+003;1.100727e+002
1.535084e+003;1.100515e+002
1.537012e+003;1.100293e+002
1.538941e+003;1.100313e+002
1.540869e+003;1.100516e+002
1.542798e+003;1.100626e+002
1.544726e+003;1.100491e+002
1.546655e+003;1.100092e+002
1.548583e+003;1.099934e+002
1.550512e+003;1.099984e+002
1.552440e+003;1.099891e+002
1.554369e+003;1.099823e+002
1.556297e+003;1.099341e+002
1.558226e+003;1.098624e+002
1.560154e+003;1.098486e+002
1.562083e+003;1.098978e+002
1.564011e+003;1.099345e+002
1.565940e+003;1.099467e+002
1.567868e+003;1.099206e+002
1.569797e+003;1.099020e+002
1.571725e+003;1.098884e+002
1.573654e+003;1.098595e+002
1.575582e+003;1.098538e+002
1.577511e+003;1.098696e+002
1.579439e+003;1.098620e+002
1.581368e+003;1.098478e+002
1.583296e+003;1.098264e+002
1.585225e+003;1.097918e+002
1.587153e+003;1.097973e+002
1.589082e+003;1.098078e+002
1.591010e+003;1.097962e+002
1.592939e+003;1.097979e+002
1.594867e+003;1.097748e+002
1.596796e+003;1.097368e+002
1.598724e+003;1.097375e+002
1.600653e+003;1.097310e+002
1.602581e+003;1.097262e+002
1.604510e+003;1.097388e+002
1.606438e+003;1.097069e+002
1.608367e+003;1.096766e+002
1.610295e+003;1.096732e+002
1.612224e+003;1.096542e+002
1.614152e+003;1.096596e+002
1.616081e+003;1.096966e+002
1.618009e+003;1.096638e+002
1.619938e+003;1.096295e+002
1.621866e+003;1.095929e+002
1.623795e+003;1.095509e+002
1.625723e+003;1.095793e+002
1.627652e+003;1.096033e+002
1.629580e+003;1.095809e+002
1.631509e+003;1.095687e+002
1.633437e+003;1.095268e+002
1.635366e+003;1.094853e+002
1.637294e+003;1.094947e+002
1.639223e+003;1.094971e+002
1.641151e+003;1.094892e+002
1.643080e+003;1.094842e+002
1.645008e+003;1.094114e+002
1.646937e+003;1.093736e+002
1.648865e+003;1.093998e+002
1.650794e+003;1.093992e+002
1.652722e+003;1.093784e+002
1.654651e+003;1.093571e+002
1.656579e+003;1.093389e+002
1.658508e+003;1.093182e+002
1.660436e+003;1.092992e+002
1.662365e+003;1.092523e+002
1.664293e+003;1.092623e+002
1.666222e+003;1.092693e+002
1.668150e+003;1.092417e+002
1.670079e+003;1.092265e+002
1.672007e+003;1.091868e+002
1.673936e+003;1.091329e+002
1.675864e+003;1.091324e+002
1.677793e+003;1.091303e+002
1.679721e+003;1.091101e+002
1.681650e+003;1.090953e+002
1.683578e+003;1.090055e+002
1.685507e+003;1.089728e+002
1.687435e+003;1.090176e+002
1.689364e+003;1.089928e+002
1.691292e+003;1.089808e+002
1.693221e+003;1.089644e+002
1.695149e+003;1.088826e+002
1.697078e+003;1.088680e+002
1.699006e+003;1.088525e+002
1.700935e+003;1.087967e+002
1.702863e+003;1.088428e+002
1.704792e+003;1.088406e+002
1.706720e+003;1.087908e+002
1.708649e+003;1.087821e+002
1.710577e+003;1.087643e+002
1.712505e+003;1.087200e+002
1.714434e+003;1.087069e+002
1.716363e+003;1.086474e+002
1.718291e+003;1.086384e+002
1.720219e+003;1.086740e+002
1.722148e+003;1.086295e+002
1.724077e+003;1.085885e+002
1.726005e+003;1.085949e+002
1.727933e+003;1.085694e+002
1.729862e+003;1.085484e+002
1.731791e+003;1.085085e+002
1.733719e+003;1.084319e+002
1.735647e+003;1.084346e+002
1.737576e+003;1.084357e+002
1.739505e+003;1.083886e+002
1.741433e+003;1.083934e+002
1.743361e+003;1.083883e+002
1.745290e+003;1.083305e+002
1.747219e+003;1.083066e+002
1.749147e+003;1.082816e+002
1.751075e+003;1.082486e+002
1.753004e+003;1.082539e+002
1.754932e+003;1.082265e+002
1.756861e+003;1.081813e+002
1.758789e+003;1.081606e+002
1.760718e+003;1.081082e+002
1.762646e+003;1.080753e+002
1.764575e+003;1.080874e+002
1.766503e+003;1.080620e+002
1.768432e+003;1.080432e+002
1.770360e+003;1.080086e+002
1.772289e+003;1.079249e+002
1.774217e+003;1.079100e+002
1.776146e+003;1.079246e+002
1.778074e+003;1.078885e+002
1.780003e+003;1.078743e+002
1.781931e+003;1.078538e+002
1.783860e+003;1.078011e+002
1.785788e+003;1.077801e+002
1.787717e+003;1.077541e+002
1.789645e+003;1.077108e+002
1.791574e+003;1.077172e+002
1.793502e+003;1.076895e+002
1.795431e+003;1.076337e+002
1.797359e+003;1.076114e+002
1.799288e+003;1.075651e+002
1.801216e+003;1.075329e+002
1.803145e+003;1.075409e+002
1.805073e+003;1.075055e+002
1.807002e+003;1.074701e+002
1.808930e+003;1.074474e+002
1.810859e+003;1.073897e+002
1.812787e+003;1.073679e+002
1.814716e+003;1.073682e+002
1.816644e+003;1.073271e+002
1.818573e+003;1.073103e+002
1.820501e+003;1.072837e+002
1.822430e+003;1.072206e+002
1.824358e+003;1.071979e+002
1.826287e+003;1.071803e+002
1.828215e+003;1.071321e+002
1.830144e+003;1.071238e+002
1.832072e+003;1.070984e+002
1.834001e+003;1.070459e+002
1.835929e+003;1.070303e+002
1.837858e+003;1.069921e+002
1.839786e+003;1.069594e+002
1.841715e+003;1.069580e+002
1.843643e+003;1.068972e+002
1.845572e+003;1.068641e+002
1.847500e+003;1.068547e+002
1.849429e+003;1.067990e+002
1.851357e+003;1.067785e+002
1.853286e+003;1.067752e+002
1.855214e+003;1.067198e+002
1.857143e+003;1.066956e+002
1.859071e+003;1.066649e+002
1.861000e+003;1.065983e+002
1.862928e+003;1.065839e+002
1.864857e+003;1.065622e+002
1.866785e+003;1.065053e+002
1.868714e+003;1.064939e+002
1.870642e+003;1.064479e+002
1.872571e+003;1.063769e+002
1.874499e+003;1.063595e+002
1.876428e+003;1.063144e+002
1.878356e+003;1.062672e+002
1.880285e+003;1.062567e+002
1.882213e+003;1.061880e+002
1.884142e+003;1.061265e+002
1.886070e+003;1.060967e+002
1.887999e+003;1.060208e+002
1.889927e+003;1.059783e+002
1.891856e+003;1.059555e+002
1.893784e+003;1.058739e+002
1.895713e+003;1.058228e+002
1.897641e+003;1.057661e+002
1.899570e+003;1.056728e+002
1.901498e+003;1.056386e+002
1.903427e+003;1.055882e+002
1.905355e+003;1.054957e+002
1.907284e+003;1.054475e+002
1.909212e+003;1.053610e+002
1.911141e+003;1.052574e+002
1.913069e+003;1.052101e+002
1.914998e+003;1.051220e+002
1.916926e+003;1.050237e+002
1.918855e+003;1.049701e+002
1.920783e+003;1.048559e+002
1.922712e+003;1.047434e+002
1.924640e+003;1.046765e+002
1.926569e+003;1.045601e+002
1.928497e+003;1.044653e+002
1.930426e+003;1.043833e+002
1.932354e+003;1.042374e+002
1.934283e+003;1.041311e+002
1.936211e+003;1.040253e+002
1.938140e+003;1.038746e+002
1.940068e+003;1.037824e+002
1.941997e+003;1.036715e+002
1.943925e+003;1.035189e+002
1.945854e+003;1.034179e+002
1.947782e+003;1.032759e+002
1.949711e+003;1.031210e+002
1.951639e+003;1.030332e+002
1.953568e+003;1.028964e+002
1.955496e+003;1.027487e+002
1.957425e+003;1.026467e+002
1.959353e+003;1.024844e+002
1.961282e+003;1.023471e+002
1.963210e+003;1.022515e+002
1.965139e+003;1.020983e+002
1.967067e+003;1.019824e+002
1.968996e+003;1.018876e+002
1.970924e+003;1.017221e+002
1.972853e+003;1.016122e+002
1.974781e+003;1.015175e+002
1.976710e+003;1.013808e+002
1.978638e+003;1.013070e+002
1.980567e+003;1.012163e+002
1.982495e+003;1.010864e+002
1.984424e+003;1.010292e+002
1.986352e+003;1.009377e+002
1.988281e+003;1.008351e+002
1.990209e+003;1.008130e+002
1.992138e+003;1.007480e+002
1.994066e+003;1.006796e+002
1.995995e+003;1.006664e+002
1.997923e+003;1.005984e+002
1.999852e+003;1.005681e+002
2.001780e+003;1.005933e+002
2.003709e+003;1.005586e+002
2.005637e+003;1.005578e+002
2.007566e+003;1.005841e+002
2.009494e+003;1.005508e+002
2.011423e+003;1.005772e+002
2.013351e+003;1.006149e+002
2.015280e+003;1.006062e+002
2.017208e+003;1.006645e+002
2.019137e+003;1.007007e+002
2.021065e+003;1.006875e+002
2.022994e+003;1.007432e+002
2.024922e+003;1.007764e+002
2.026851e+003;1.007922e+002
2.028779e+003;1.008627e+002
2.030708e+003;1.008797e+002
2.032636e+003;1.008870e+002
2.034565e+003;1.009472e+002
2.036493e+003;1.009509e+002
2.038422e+003;1.009707e+002
2.040350e+003;1.010292e+002
2.042279e+003;1.010306e+002
2.044207e+003;1.010468e+002
2.046135e+003;1.010801e+002
2.048064e+003;1.010603e+002
2.049992e+003;1.010860e+002
2.051921e+003;1.011192e+002
2.053850e+003;1.010954e+002
2.055778e+003;1.011135e+002
2.057707e+003;1.011246e+002
2.059635e+003;1.010916e+002
2.061563e+003;1.011096e+002
2.063492e+003;1.011094e+002
2.065420e+003;1.010871e+002
2.067349e+003;1.011115e+002
2.069278e+003;1.010969e+002
2.071206e+003;1.010630e+002
2.073135e+003;1.010795e+002
2.075063e+003;1.010615e+002
2.076991e+003;1.010435e+002
2.078920e+003;1.010609e+002
2.080848e+003;1.010338e+002
2.082777e+003;1.010132e+002
2.084706e+003;1.010227e+002
2.086634e+003;1.009866e+002
2.088563e+003;1.009780e+002
2.090491e+003;1.009977e+002
2.092419e+003;1.009723e+002
2.094348e+003;1.009645e+002
2.096276e+003;1.009638e+002
2.098205e+003;1.009233e+002
2.100134e+003;1.009308e+002
2.102062e+003;1.009423e+002
2.103990e+003;1.009084e+002
2.105919e+003;1.009114e+002
2.107847e+003;1.009083e+002
2.109776e+003;1.008725e+002
2.111704e+003;1.008839e+002
2.113633e+003;1.008729e+002
2.115562e+003;1.008471e+002
2.117490e+003;1.008650e+002
2.119418e+003;1.008438e+002
2.121347e+003;1.008066e+002
2.123275e+003;1.008166e+002
2.125204e+003;1.007939e+002
2.127132e+003;1.007751e+002
2.129061e+003;1.007845e+002
2.130990e+003;1.007439e+002
2.132918e+003;1.007177e+002
2.134846e+003;1.007249e+002
2.136775e+003;1.006759e+002
2.138703e+003;1.006593e+002
2.140632e+003;1.006633e+002
2.142560e+003;1.006111e+002
2.144489e+003;1.005906e+002
2.146417e+003;1.005728e+002
2.148346e+003;1.005107e+002
2.150274e+003;1.005055e+002
2.152203e+003;1.004867e+002
2.154131e+003;1.004239e+002
2.156060e+003;1.004141e+002
2.157988e+003;1.003779e+002
2.159917e+003;1.003069e+002
2.161845e+003;1.002934e+002
2.163774e+003;1.002473e+002
2.165702e+003;1.001949e+002
2.167631e+003;1.001888e+002
2.169559e+003;1.001240e+002
2.171488e+003;1.000610e+002
2.173416e+003;1.000482e+002
2.175345e+003;9.997856e+001
2.177273e+003;9.993448e+001
2.179202e+003;9.991495e+001
2.181130e+003;9.983219e+001
2.183059e+003;9.979013e+001
2.184987e+003;9.975630e+001
2.186916e+003;9.966594e+001
2.188844e+003;9.964291e+001
2.190773e+003;9.960983e+001
2.192701e+003;9.952235e+001
2.194630e+003;9.949171e+001
2.196558e+003;9.943293e+001
2.198487e+003;9.935007e+001
2.200415e+003;9.934107e+001
2.202344e+003;9.927808e+001
2.204272e+003;9.919895e+001
2.206201e+003;9.918135e+001
2.208129e+003;9.910126e+001
2.210058e+003;9.903255e+001
2.211986e+003;9.902001e+001
2.213915e+003;9.893326e+001
2.215843e+003;9.888371e+001
2.217772e+003;9.886136e+001
2.219700e+003;9.875425e+001
2.221629e+003;9.870892e+001
2.223557e+003;9.868023e+001
2.225486e+003;9.857668e+001
2.227414e+003;9.855695e+001
2.229343e+003;9.851073e+001
2.231271e+003;9.840173e+001
2.233200e+003;9.838925e+001
2.235128e+003;9.832420e+001
2.237057e+003;9.822275e+001
2.238985e+003;9.822594e+001
2.240914e+003;9.814532e+001
2.242842e+003;9.805650e+001
2.244771e+003;9.805177e+001
2.246699e+003;9.794742e+001
2.248628e+003;9.788307e+001
2.250556e+003;9.788553e+001
2.252485e+003;9.776575e+001
2.254413e+003;9.772089e+001
2.256342e+003;9.770776e+001
2.258270e+003;9.757980e+001
2.260199e+003;9.755122e+001
2.262127e+003;9.752167e+001
2.264056e+003;9.739796e+001
2.265984e+003;9.739828e+001
2.267913e+003;9.734482e+001
2.269841e+003;9.721850e+001
2.271770e+003;9.722501e+001
2.273698e+003;9.715224e+001
2.275627e+003;9.704937e+001
2.277555e+003;9.706578e+001
2.279484e+003;9.696142e+001
2.281412e+003;9.687330e+001
2.283341e+003;9.688544e+001
2.285269e+003;9.676458e+001
2.287198e+003;9.670284e+001
2.289126e+003;9.671310e+001
2.291055e+003;9.658374e+001
2.292983e+003;9.653912e+001
2.294912e+003;9.651852e+001
2.296840e+003;9.638158e+001
2.298769e+003;9.637044e+001
2.300697e+003;9.633803e+001
2.302626e+003;9.619579e+001
2.304554e+003;9.619876e+001
2.306483e+003;9.614036e+001
2.308411e+003;9.601258e+001
2.310340e+003;9.602656e+001
2.312268e+003;9.594150e+001
2.314197e+003;9.583468e+001
2.316125e+003;9.586178e+001
2.318054e+003;9.574492e+001
2.319982e+003;9.564909e+001
2.321911e+003;9.567062e+001
2.323839e+003;9.554778e+001
2.325768e+003;9.548409e+001
2.327696e+003;9.549297e+001
2.329625e+003;9.535078e+001
2.331553e+003;9.531074e+001
2.333482e+003;9.530014e+001
2.335410e+003;9.515182e+001
2.337339e+003;9.514343e+001
2.339267e+003;9.511721e+001
2.341196e+003;9.496843e+001
2.343124e+003;9.497380e+001
2.345053e+003;9.490860e+001
2.346981e+003;9.478260e+001
2.348910e+003;9.480833e+001
2.350838e+003;9.471474e+001
2.352767e+003;9.459892e+001
2.354695e+003;9.462462e+001
2.356624e+003;9.450535e+001
2.358552e+003;9.441766e+001
2.360481e+003;9.443839e+001
2.362409e+003;9.430501e+001
2.364338e+003;9.425262e+001
2.366266e+003;9.426331e+001
2.368195e+003;9.410659e+001
2.370123e+003;9.407389e+001
2.372052e+003;9.406592e+001
2.373980e+003;9.391750e+001
2.375908e+003;9.391683e+001
2.377837e+003;9.387699e+001
2.379766e+003;9.372367e+001
2.381694e+003;9.374350e+001
2.383623e+003;9.367377e+001
2.385551e+003;9.353594e+001
2.387479e+003;9.356815e+001
2.389408e+003;9.347189e+001
2.391336e+003;9.335392e+001
2.393265e+003;9.338744e+001
2.395194e+003;9.326181e+001
2.397122e+003;9.317596e+001
2.399051e+003;9.320649e+001
2.400979e+003;9.306459e+001
2.402907e+003;9.300533e+001
2.404836e+003;9.301709e+001
2.406764e+003;9.285574e+001
2.408693e+003;9.282985e+001
2.410622e+003;9.281895e+001
2.412550e+003;9.265830e+001
2.414479e+003;9.266259e+001
2.416407e+003;9.262392e+001
2.418335e+003;9.245948e+001
2.420264e+003;9.247944e+001
2.422192e+003;9.241516e+001
2.424121e+003;9.227895e+001
2.426050e+003;9.231216e+001
2.427978e+003;9.221011e+001
2.429906e+003;9.209176e+001
2.431835e+003;9.213337e+001
2.433763e+003;9.200314e+001
2.435692e+003;9.191346e+001
2.437620e+003;9.194833e+001
2.439549e+003;9.179967e+001
2.441478e+003;9.174059e+001
2.443406e+003;9.175558e+001
2.445334e+003;9.158880e+001
2.447263e+003;9.156855e+001
2.449191e+003;9.156340e+001
2.451120e+003;9.139290e+001
2.453048e+003;9.139439e+001
2.454977e+003;9.135285e+001
2.456906e+003;9.118728e+001
2.458834e+003;9.121665e+001
2.460762e+003;9.114810e+001
2.462691e+003;9.100618e+001
2.464619e+003;9.104694e+001
2.466548e+003;9.093820e+001
2.468476e+003;9.081346e+001
2.470405e+003;9.085892e+001
2.472333e+003;9.072663e+001
2.474262e+003;9.064309e+001
2.476190e+003;9.067717e+001
2.478119e+003;9.051487e+001
2.480047e+003;9.046297e+001
2.481976e+003;9.048463e+001
2.483904e+003;9.031139e+001
2.485833e+003;9.029494e+001
2.487761e+003;9.028789e+001
2.489690e+003;9.011412e+001
2.491618e+003;9.012234e+001
2.493547e+003;9.007635e+001
2.495475e+003;8.990927e+001
2.497404e+003;8.994649e+001
2.499332e+003;8.986866e+001
2.501261e+003;8.971983e+001
2.503189e+003;8.976378e+001
2.505118e+003;8.965337e+001
2.507046e+003;8.953673e+001
2.508975e+003;8.958575e+001
2.510903e+003;8.944246e+001
2.512832e+003;8.936135e+001
2.514760e+003;8.940112e+001
2.516689e+003;8.923412e+001
2.518617e+003;8.918221e+001
2.520546e+003;8.920466e+001
2.522474e+003;8.903179e+001
2.524403e+003;8.901364e+001
2.526331e+003;8.899821e+001
2.528260e+003;8.882154e+001
2.530188e+003;8.883979e+001
2.532117e+003;8.879980e+001
2.534045e+003;8.862772e+001
2.535974e+003;8.866396e+001
2.537902e+003;8.858704e+001
2.539831e+003;8.843922e+001
2.541759e+003;8.848791e+001
2.543688e+003;8.837083e+001
2.545616e+003;8.825346e+001
2.547545e+003;8.831388e+001
2.549473e+003;8.816603e+001
2.551402e+003;8.807569e+001
2.553330e+003;8.811819e+001
2.555259e+003;8.795097e+001
2.557187e+003;8.790473e+001
2.559116e+003;8.792643e+001
2.561044e+003;8.774175e+001
2.562973e+003;8.773445e+001
2.564901e+003;8.772406e+001
2.566830e+003;8.753381e+001
2.568758e+003;8.755191e+001
2.570687e+003;8.751427e+001
2.572615e+003;8.734367e+001
2.574544e+003;8.738254e+001
2.576472e+003;8.729671e+001
2.578401e+003;8.714827e+001
2.580329e+003;8.720663e+001
2.582258e+003;8.708979e+001
2.584186e+003;8.696947e+001
2.586115e+003;8.702420e+001
2.588043e+003;8.687548e+001
2.589972e+003;8.679263e+001
2.591900e+003;8.683270e+001
2.593829e+003;8.665922e+001
2.595757e+003;8.661837e+001
2.597686e+003;8.664538e+001
2.599614e+003;8.645552e+001
2.601543e+003;8.644270e+001
2.603471e+003;8.643688e+001
2.605400e+003;8.625793e+001
2.607328e+003;8.627843e+001
2.609257e+003;8.622953e+001
2.611185e+003;8.605476e+001
2.613114e+003;8.610181e+001
2.615042e+003;8.601720e+001
2.616971e+003;8.586722e+001
2.618899e+003;8.592359e+001
2.620828e+003;8.580499e+001
2.622756e+003;8.568929e+001
2.624685e+003;8.574290e+001
2.626613e+003;8.558098e+001
2.628542e+003;8.550301e+001
2.630470e+003;8.555340e+001
2.632399e+003;8.537853e+001
2.634327e+003;8.533534e+001
2.636256e+003;8.535793e+001
2.638184e+003;8.517369e+001
2.640113e+003;8.516954e+001
2.642041e+003;8.515022e+001
2.643970e+003;8.496613e+001
2.645898e+003;8.499430e+001
2.647827e+003;8.494245e+001
2.649755e+003;8.476676e+001
2.651684e+003;8.481564e+001
2.653612e+003;8.472681e+001
2.655541e+003;8.458656e+001
2.657469e+003;8.464625e+001
2.659398e+003;8.451422e+001
2.661326e+003;8.440206e+001
2.663255e+003;8.446209e+001
2.665183e+003;8.429846e+001
2.667112e+003;8.422047e+001
2.669040e+003;8.426817e+001
2.670969e+003;8.409274e+001
2.672897e+003;8.405643e+001
2.674826e+003;8.407301e+001
2.676754e+003;8.388046e+001
2.678683e+003;8.388752e+001
2.680611e+003;8.387762e+001
2.682540e+003;8.368503e+001
2.684468e+003;8.371558e+001
2.686397e+003;8.366932e+001
2.688325e+003;8.349723e+001
2.690254e+003;8.354594e+001
2.692182e+003;8.344648e+001
2.694111e+003;8.330186e+001
2.696039e+003;8.337355e+001
2.697968e+003;8.324771e+001
2.699896e+003;8.312605e+001
2.701825e+003;8.318488e+001
2.703753e+003;8.302916e+001
2.705682e+003;8.295877e+001
2.707610e+003;8.300043e+001
2.709539e+003;8.281707e+001
2.711467e+003;8.278521e+001
2.713396e+003;8.280620e+001
2.715324e+003;8.261275e+001
2.717253e+003;8.261271e+001
2.719181e+003;8.260316e+001
2.721110e+003;8.242178e+001
2.723038e+003;8.245137e+001
2.724967e+003;8.239832e+001
2.726895e+003;8.223322e+001
2.728823e+003;8.228732e+001
2.730752e+003;8.219202e+001
2.732681e+003;8.204637e+001
2.734609e+003;8.210179e+001
2.736538e+003;8.197887e+001
2.738466e+003;8.187532e+001
2.740395e+003;8.192614e+001
2.742323e+003;8.176469e+001
2.744251e+003;8.169878e+001
2.746180e+003;8.174178e+001
2.748109e+003;8.156522e+001
2.750037e+003;8.153065e+001
2.751966e+003;8.154010e+001
2.753894e+003;8.136034e+001
2.755823e+003;8.137210e+001
2.757751e+003;8.134538e+001
2.759679e+003;8.116705e+001
2.761608e+003;8.120554e+001
2.763537e+003;8.114742e+001
2.765465e+003;8.098273e+001
2.767394e+003;8.103343e+001
2.769322e+003;8.093581e+001
2.771250e+003;8.080654e+001
2.773179e+003;8.086179e+001
2.775107e+003;8.072193e+001
2.777036e+003;8.063153e+001
2.778965e+003;8.069393e+001
2.780893e+003;8.052775e+001
2.782822e+003;8.046395e+001
2.784750e+003;8.050056e+001
2.786678e+003;8.032497e+001
2.788607e+003;8.030683e+001
2.790535e+003;8.031199e+001
2.792464e+003;8.012399e+001
2.794393e+003;8.014378e+001
2.796321e+003;8.011906e+001
2.798250e+003;7.993777e+001
2.800178e+003;7.997786e+001
2.802106e+003;7.991527e+001
2.804035e+003;7.975597e+001
2.805963e+003;7.981347e+001
2.807892e+003;7.970068e+001
2.809821e+003;7.957365e+001
2.811749e+003;7.964957e+001
2.813677e+003;7.950928e+001
2.815606e+003;7.940334e+001
2.817534e+003;7.945885e+001
2.819463e+003;7.930209e+001
2.821391e+003;7.924741e+001
2.823320e+003;7.928062e+001
2.825249e+003;7.909682e+001
2.827177e+003;7.908037e+001
2.829105e+003;7.909821e+001
2.831034e+003;7.890932e+001
2.832962e+003;7.891668e+001
2.834891e+003;7.889290e+001
2.836819e+003;7.872392e+001
2.838748e+003;7.876305e+001
2.840677e+003;7.869366e+001
2.842605e+003;7.853672e+001
2.844533e+003;7.860002e+001
2.846462e+003;7.850175e+001
2.848390e+003;7.836452e+001
2.850319e+003;7.841953e+001
2.852247e+003;7.829163e+001
2.854176e+003;7.820157e+001
2.856104e+003;7.824672e+001
2.858033e+003;7.808295e+001
2.859961e+003;7.803815e+001
2.861890e+003;7.807605e+001
2.863818e+003;7.790211e+001
2.865747e+003;7.787990e+001
2.867675e+003;7.788454e+001
2.869604e+003;7.771806e+001
2.871532e+003;7.773440e+001
2.873461e+003;7.769350e+001
2.875389e+003;7.753033e+001
2.877318e+003;7.757853e+001
2.879246e+003;7.750665e+001
2.881175e+003;7.735394e+001
2.883103e+003;7.740486e+001
2.885032e+003;7.730297e+001
2.886960e+003;7.719720e+001
2.888889e+003;7.724617e+001
2.890817e+003;7.709455e+001
2.892746e+003;7.701986e+001
2.894674e+003;7.707518e+001
2.896603e+003;7.691158e+001
2.898531e+003;7.686543e+001
2.900460e+003;7.688826e+001
2.902388e+003;7.671838e+001
2.904317e+003;7.671674e+001
2.906245e+003;7.670241e+001
2.908174e+003;7.651867e+001
2.910102e+003;7.655617e+001
2.912031e+003;7.652035e+001
2.913959e+003;7.634487e+001
2.915888e+003;7.638933e+001
2.917816e+003;7.631475e+001
2.919745e+003;7.617533e+001
2.921673e+003;7.623528e+001
2.923602e+003;7.611131e+001
2.925530e+003;7.600139e+001
2.927459e+003;7.607979e+001
2.929387e+003;7.593917e+001
2.931316e+003;7.585121e+001
2.933244e+003;7.590163e+001
2.935173e+003;7.574896e+001
2.937101e+003;7.571416e+001
2.939030e+003;7.573730e+001
2.940958e+003;7.555724e+001
2.942887e+003;7.555753e+001
2.944815e+003;7.556625e+001
2.946744e+003;7.538840e+001
2.948672e+003;7.540369e+001
2.950601e+003;7.537032e+001
2.952529e+003;7.521885e+001
2.954458e+003;7.525972e+001
2.956386e+003;7.517329e+001
2.958315e+003;7.503475e+001
2.960243e+003;7.510386e+001
2.962172e+003;7.499944e+001
2.964100e+003;7.488422e+001
2.966029e+003;7.493349e+001
2.967957e+003;7.480334e+001
2.969886e+003;7.474224e+001
2.971814e+003;7.477911e+001
2.973743e+003;7.461636e+001
2.975671e+003;7.459067e+001
2.977600e+003;7.461236e+001
2.979528e+003;7.444236e+001
2.981457e+003;7.443359e+001
2.983385e+003;7.442040e+001
2.985314e+003;7.426857e+001
2.987242e+003;7.430168e+001
2.989171e+003;7.424345e+001
2.991099e+003;7.409602e+001
2.993028e+003;7.415205e+001
2.994956e+003;7.406488e+001
2.996885e+003;7.393557e+001
2.998813e+003;7.398825e+001
3.000742e+003;7.387449e+001
3.002670e+003;7.379315e+001
3.004599e+003;7.383864e+001
3.006527e+003;7.368354e+001
3.008456e+003;7.363813e+001
3.010384e+003;7.368285e+001
3.012313e+003;7.351206e+001
3.014241e+003;7.348376e+001
3.016170e+003;7.349386e+001
3.018098e+003;7.333072e+001
3.020027e+003;7.335373e+001
3.021955e+003;7.332989e+001
3.023884e+003;7.316126e+001
3.025812e+003;7.320947e+001
3.027741e+003;7.316055e+001
3.029669e+003;7.300564e+001
3.031598e+003;7.305639e+001
3.033526e+003;7.297302e+001
3.035455e+003;7.285703e+001
3.037383e+003;7.291599e+001
3.039312e+003;7.278960e+001
3.041240e+003;7.269946e+001
3.043169e+003;7.275977e+001
3.045097e+003;7.261656e+001
3.047026e+003;7.255605e+001
3.048954e+003;7.259715e+001
3.050883e+003;7.244625e+001
3.052811e+003;7.242903e+001
3.054740e+003;7.243452e+001
3.056668e+003;7.226585e+001
3.058597e+003;7.228173e+001
3.060525e+003;7.227023e+001
3.062454e+003;7.210955e+001
3.064382e+003;7.213535e+001
3.066311e+003;7.208403e+001
3.068239e+003;7.195724e+001
3.070167e+003;7.200272e+001
3.072096e+003;7.190959e+001
3.074025e+003;7.180053e+001
3.075953e+003;7.185534e+001
3.077882e+003;7.174210e+001
3.079810e+003;7.166200e+001
3.081739e+003;7.169701e+001
3.083667e+003;7.156439e+001
3.085595e+003;7.153101e+001
3.087524e+003;7.154607e+001
3.089453e+003;7.138963e+001
3.091381e+003;7.138542e+001
3.093310e+003;7.138783e+001
3.095238e+003;7.123794e+001
3.097167e+003;7.125175e+001
3.099095e+003;7.121436e+001
3.101023e+003;7.108273e+001
3.102952e+003;7.112466e+001
3.104881e+003;7.104753e+001
3.106809e+003;7.092481e+001
3.108738e+003;7.098444e+001
3.110666e+003;7.088773e+001
3.112594e+003;7.079021e+001
3.114523e+003;7.083379e+001
3.116451e+003;7.071268e+001
3.118380e+003;7.065908e+001
3.120309e+003;7.069553e+001
3.122237e+003;7.054175e+001
3.124166e+003;7.051382e+001
3.126094e+003;7.054401e+001
3.128022e+003;7.038992e+001
3.129951e+003;7.038535e+001
3.131879e+003;7.037818e+001
3.133808e+003;7.023314e+001
3.135737e+003;7.026576e+001
3.137665e+003;7.022302e+001
3.139594e+003;7.007774e+001
3.141522e+003;7.013226e+001
3.143450e+003;7.007301e+001
3.145379e+003;6.994479e+001
3.147307e+003;6.998680e+001
3.149236e+003;6.989237e+001
3.151165e+003;6.980933e+001
3.153093e+003;6.985811e+001
3.155021e+003;6.973013e+001
3.156950e+003;6.966539e+001
3.158878e+003;6.971065e+001
3.160807e+003;6.958513e+001
3.162735e+003;6.954746e+001
3.164664e+003;6.955833e+001
3.166593e+003;6.942410e+001
3.168521e+003;6.942430e+001
3.170449e+003;6.941064e+001
3.172378e+003;6.927274e+001
3.174306e+003;6.929130e+001
3.176235e+003;6.925784e+001
3.178163e+003;6.913816e+001
3.180092e+003;6.916237e+001
3.182021e+003;6.909091e+001
3.183949e+003;6.900071e+001
3.185877e+003;6.903799e+001
3.187806e+003;6.893330e+001
3.189734e+003;6.886135e+001
3.191663e+003;6.890056e+001
3.193591e+003;6.878686e+001
3.195520e+003;6.874195e+001
3.197448e+003;6.875186e+001
3.199377e+003;6.862103e+001
3.201305e+003;6.862280e+001
3.203234e+003;6.862555e+001
3.205162e+003;6.848505e+001
3.207091e+003;6.849681e+001
3.209019e+003;6.847452e+001
3.210948e+003;6.834823e+001
3.212876e+003;6.837567e+001
3.214805e+003;6.831467e+001
3.216733e+003;6.820837e+001
3.218662e+003;6.825739e+001
3.220590e+003;6.816562e+001
3.222519e+003;6.806819e+001
3.224447e+003;6.812186e+001
3.226376e+003;6.802663e+001
3.228304e+003;6.795804e+001
3.230233e+003;6.798612e+001
3.232161e+003;6.786458e+001
3.234090e+003;6.783469e+001
3.236018e+003;6.786356e+001
3.237947e+003;6.772773e+001
3.239875e+003;6.771291e+001
3.241804e+003;6.772333e+001
3.243732e+003;6.760141e+001
3.245661e+003;6.760304e+001
3.247589e+003;6.757037e+001
3.249518e+003;6.745353e+001
3.251446e+003;6.748999e+001
3.253375e+003;6.743874e+001
3.255303e+003;6.732376e+001
3.257232e+003;6.735680e+001
3.259160e+003;6.728983e+001
3.261089e+003;6.720578e+001
3.263017e+003;6.723004e+001
3.264946e+003;6.714288e+001
3.266874e+003;6.709393e+001
3.268803e+003;6.711451e+001
3.270731e+003;6.700297e+001
3.272660e+003;6.696498e+001
3.274588e+003;6.697393e+001
3.276517e+003;6.687000e+001
3.278445e+003;6.685667e+001
3.280374e+003;6.683201e+001
3.282302e+003;6.672707e+001
3.284231e+003;6.674442e+001
3.286159e+003;6.670567e+001
3.288088e+003;6.659820e+001
3.290016e+003;6.662009e+001
3.291945e+003;6.656830e+001
3.293873e+003;6.649459e+001
3.295802e+003;6.651389e+001
3.297730e+003;6.642199e+001
3.299659e+003;6.637097e+001
3.301587e+003;6.639935e+001
3.303516e+003;6.629107e+001
3.305444e+003;6.624998e+001
3.307373e+003;6.626793e+001
3.309301e+003;6.616414e+001
3.311230e+003;6.615057e+001
3.313158e+003;6.614249e+001
3.315087e+003;6.602844e+001
3.317015e+003;6.604425e+001
3.318944e+003;6.602268e+001
3.320872e+003;6.590337e+001
3.322801e+003;6.591761e+001
3.324729e+003;6.588659e+001
3.326658e+003;6.579568e+001
3.328586e+003;6.581497e+001
3.330515e+003;6.574594e+001
3.332443e+003;6.567197e+001
3.334372e+003;6.570899e+001
3.336300e+003;6.562388e+001
3.338229e+003;6.555221e+001
3.340157e+003;6.558240e+001
3.342086e+003;6.550536e+001
3.344014e+003;6.546220e+001
3.345943e+003;6.546239e+001
3.347871e+003;6.536717e+001
3.349800e+003;6.536055e+001
3.351728e+003;6.536071e+001
3.353657e+003;6.524938e+001
3.355585e+003;6.523958e+001
3.357514e+003;6.523270e+001
3.359442e+003;6.515060e+001
3.361371e+003;6.514522e+001
3.363299e+003;6.509371e+001
3.365228e+003;6.502885e+001
3.367156e+003;6.505299e+001
3.369085e+003;6.498331e+001
3.371013e+003;6.490743e+001
3.372942e+003;6.492554e+001
3.374870e+003;6.486636e+001
3.376799e+003;6.481991e+001
3.378727e+003;6.480768e+001
3.380656e+003;6.472477e+001
3.382584e+003;6.471985e+001
3.384513e+003;6.471316e+001
3.386441e+003;6.461092e+001
3.388370e+003;6.459930e+001
3.390298e+003;6.458653e+001
3.392227e+003;6.451013e+001
3.394155e+003;6.450900e+001
3.396083e+003;6.445703e+001
3.398012e+003;6.439173e+001
3.399941e+003;6.442475e+001
3.401869e+003;6.436136e+001
3.403798e+003;6.427845e+001
3.405726e+003;6.429407e+001
3.407655e+003;6.424347e+001
3.409583e+003;6.419658e+001
3.411511e+003;6.419298e+001
3.413440e+003;6.410943e+001
3.415369e+003;6.409275e+001
3.417297e+003;6.410792e+001
3.419226e+003;6.400626e+001
3.421154e+003;6.397536e+001
3.423083e+003;6.398793e+001
3.425011e+003;6.391977e+001
3.426939e+003;6.389759e+001
3.428868e+003;6.386160e+001
3.430797e+003;6.379342e+001
3.432725e+003;6.381422e+001
3.434654e+003;6.377334e+001
3.436582e+003;6.368581e+001
3.438510e+003;6.369332e+001
3.440439e+003;6.367113e+001
3.442367e+003;6.361348e+001
3.444296e+003;6.359238e+001
3.446225e+003;6.353083e+001
3.448153e+003;6.351252e+001
3.450082e+003;6.351717e+001
3.452010e+003;6.343668e+001
3.453938e+003;6.339398e+001
3.455867e+003;6.339554e+001
3.457795e+003;6.335251e+001
3.459724e+003;6.332921e+001
3.461653e+003;6.328580e+001
3.463581e+003;6.322785e+001
3.465510e+003;6.323911e+001
3.467438e+003;6.320374e+001
3.469366e+003;6.312976e+001
3.471295e+003;6.312382e+001
3.473223e+003;6.309085e+001
3.475152e+003;6.305069e+001
3.477081e+003;6.303306e+001
3.479009e+003;6.297132e+001
3.480938e+003;6.295537e+001
3.482866e+003;6.296393e+001
3.484794e+003;6.288613e+001
3.486723e+003;6.284690e+001
3.488651e+003;6.284794e+001
3.490580e+003;6.280420e+001
3.492509e+003;6.278126e+001
3.494437e+003;6.273471e+001
3.496365e+003;6.266758e+001
3.498294e+003;6.268550e+001
3.500222e+003;6.266135e+001
3.502151e+003;6.258424e+001
3.504079e+003;6.256916e+001
3.506008e+003;6.254718e+001
3.507937e+003;6.250970e+001
3.509865e+003;6.249339e+001
3.511793e+003;6.242823e+001
3.513722e+003;6.240333e+001
3.515650e+003;6.241851e+001
3.517579e+003;6.235052e+001
3.519507e+003;6.229525e+001
3.521436e+003;6.229625e+001
3.523365e+003;6.226593e+001
3.525293e+003;6.223693e+001
3.527221e+003;6.219885e+001
3.529150e+003;6.214597e+001
3.531078e+003;6.214803e+001
3.533007e+003;6.213569e+001
3.534935e+003;6.207114e+001
3.536864e+003;6.203844e+001
3.538792e+003;6.202304e+001
3.540721e+003;6.200128e+001
3.542649e+003;6.196938e+001
3.544578e+003;6.191168e+001
3.546506e+003;6.189172e+001
3.548435e+003;6.189320e+001
3.550363e+003;6.184182e+001
3.552292e+003;6.179379e+001
3.554220e+003;6.177433e+001
3.556149e+003;6.176558e+001
3.558077e+003;6.175373e+001
3.560006e+003;6.169197e+001
3.561934e+003;6.163744e+001
3.563863e+003;6.165073e+001
3.565791e+003;6.162708e+001
3.567720e+003;6.156905e+001
3.569648e+003;6.154125e+001
3.571577e+003;6.151938e+001
3.573505e+003;6.151314e+001
3.575434e+003;6.148906e+001
3.577362e+003;6.141804e+001
3.579291e+003;6.140435e+001
3.581219e+003;6.141320e+001
3.583148e+003;6.135980e+001
3.585076e+003;6.131342e+001
3.587005e+003;6.129120e+001
3.588933e+003;6.127691e+001
3.590862e+003;6.127467e+001
3.592790e+003;6.122342e+001
3.594719e+003;6.116849e+001
3.596647e+003;6.117732e+001
3.598576e+003;6.116139e+001
3.600504e+003;6.110694e+001
3.602433e+003;6.107132e+001
3.604361e+003;6.105115e+001
3.606290e+003;6.105547e+001
3.608218e+003;6.102725e+001
3.610147e+003;6.095542e+001
3.612075e+003;6.093862e+001
3.614004e+003;6.094844e+001
3.615932e+003;6.091251e+001
3.617861e+003;6.087057e+001
3.619789e+003;6.083455e+001
3.621718e+003;6.082882e+001
3.623646e+003;6.084010e+001
3.625575e+003;6.078201e+001
3.627503e+003;6.071885e+001
3.629432e+003;6.072942e+001
3.631360e+003;6.071375e+001
3.633289e+003;6.067568e+001
3.635217e+003;6.064817e+001
3.637146e+003;6.061456e+001
3.639074e+003;6.062474e+001
3.641003e+003;6.060532e+001
3.642931e+003;6.052560e+001
3.644860e+003;6.052419e+001
3.646788e+003;6.053163e+001
3.648717e+003;6.047714e+001
3.650645e+003;6.044946e+001
3.652574e+003;6.041558e+001
3.654502e+003;6.038910e+001
3.656431e+003;6.041361e+001
3.658359e+003;6.036178e+001
3.660288e+003;6.029992e+001
3.662216e+003;6.032808e+001
3.664145e+003;6.031599e+001
3.666073e+003;6.027194e+001
3.668002e+003;6.023579e+001
3.669930e+003;6.017477e+001
3.671859e+003;6.020073e+001
3.673787e+003;6.020033e+001
3.675716e+003;6.010425e+001
3.677644e+003;6.010194e+001
3.679573e+003;6.013048e+001
3.681501e+003;6.009028e+001
3.683430e+003;6.007244e+001
3.685358e+003;6.002299e+001
3.687287e+003;5.998745e+001
3.689215e+003;6.002365e+001
3.691144e+003;5.997192e+001
3.693072e+003;5.990904e+001
3.695001e+003;5.994310e+001
3.696929e+003;5.992770e+001
3.698858e+003;5.989733e+001
3.700786e+003;5.987643e+001
3.702715e+003;5.981086e+001
3.704643e+003;5.983524e+001
3.706572e+003;5.985878e+001
3.708500e+003;5.975569e+001
3.710429e+003;5.973936e+001
3.712357e+003;5.977380e+001
3.714286e+003;5.973618e+001
3.716214e+003;5.972107e+001
3.718143e+003;5.967517e+001
3.720071e+003;5.963528e+001
3.722000e+003;5.968869e+001
3.723928e+003;5.963731e+001
3.725857e+003;5.955766e+001
3.727785e+003;5.959567e+001
3.729714e+003;5.957494e+001
3.731642e+003;5.952729e+001
3.733571e+003;5.952289e+001
3.735499e+003;5.945544e+001
3.737427e+003;5.948083e+001
3.739356e+003;5.952212e+001
3.741285e+003;5.942432e+001
3.743213e+003;5.940092e+001
3.745142e+003;5.944157e+001
3.747070e+003;5.940532e+001
3.748999e+003;5.940379e+001
3.750927e+003;5.936767e+001
3.752855e+003;5.931877e+001
3.754784e+003;5.939246e+001
3.756713e+003;5.935946e+001
3.758641e+003;5.926799e+001
3.760570e+003;5.930964e+001
3.762498e+003;5.929856e+001
3.764427e+003;5.926492e+001
3.766355e+003;5.927645e+001
3.768283e+003;5.919711e+001
3.770212e+003;5.920455e+001
3.772141e+003;5.926818e+001
3.774069e+003;5.916217e+001
3.775998e+003;5.913184e+001
3.777926e+003;5.918291e+001
3.779854e+003;5.912820e+001
3.781783e+003;5.912920e+001
3.783711e+003;5.910383e+001
3.785640e+003;5.902911e+001
3.787569e+003;5.910662e+001
3.789497e+003;5.909226e+001
3.791426e+003;5.897875e+001
3.793354e+003;5.902441e+001
3.795282e+003;5.902601e+001
3.797211e+003;5.897778e+001
3.799139e+003;5.899611e+001
3.801068e+003;5.890812e+001
3.802997e+003;5.890789e+001
3.804925e+003;5.899425e+001
3.806854e+003;5.889062e+001
3.808782e+003;5.884423e+001
3.810710e+003;5.890836e+001
3.812639e+003;5.886170e+001
3.814567e+003;5.885157e+001
3.816496e+003;5.883249e+001
3.818425e+003;5.874914e+001
3.820353e+003;5.881513e+001
3.822281e+003;5.883076e+001
3.824210e+003;5.872151e+001
3.826138e+003;5.875359e+001
3.828067e+003;5.876474e+001
3.829995e+003;5.871587e+001
3.831924e+003;5.874386e+001
3.833853e+003;5.866460e+001
3.835781e+003;5.864172e+001
3.837709e+003;5.873630e+001
3.839638e+003;5.864182e+001
3.841566e+003;5.858904e+001
3.843495e+003;5.866197e+001
3.845423e+003;5.860738e+001
3.847352e+003;5.861527e+001
3.849281e+003;5.862152e+001
3.851209e+003;5.850132e+001
3.853137e+003;5.855534e+001
3.855066e+003;5.859576e+001
3.856994e+003;5.847875e+001
3.858923e+003;5.851851e+001
3.860851e+003;5.853699e+001
3.862780e+003;5.847095e+001
3.864708e+003;5.852063e+001
3.866637e+003;5.845279e+001
3.868565e+003;5.840150e+001
3.870494e+003;5.851955e+001
3.872422e+003;5.844363e+001
3.874351e+003;5.835515e+001
3.876279e+003;5.844039e+001
3.878208e+003;5.838935e+001
3.880136e+003;5.838055e+001
3.882065e+003;5.841216e+001
3.883993e+003;5.829283e+001
3.885922e+003;5.835269e+001
3.887850e+003;5.842705e+001
3.889779e+003;5.827558e+001
3.891707e+003;5.829083e+001
3.893636e+003;5.833450e+001
3.895564e+003;5.826867e+001
3.897493e+003;5.831654e+001
3.899421e+003;5.826086e+001
3.901350e+003;5.818407e+001
3.903278e+003;5.830398e+001
3.905207e+003;5.825186e+001
3.907135e+003;5.815915e+001
3.909064e+003;5.824165e+001
3.910992e+003;5.820451e+001
3.912921e+003;5.819791e+001
3.914849e+003;5.823710e+001
3.916778e+003;5.810759e+001
3.918706e+003;5.815385e+001
3.920635e+003;5.823861e+001
3.922563e+003;5.809466e+001
3.924492e+003;5.809510e+001
3.926420e+003;5.815540e+001
3.928349e+003;5.808726e+001
3.930277e+003;5.814236e+001
3.932206e+003;5.809575e+001
3.934134e+003;5.800363e+001
3.936063e+003;5.813943e+001
3.937991e+003;5.810455e+001
3.939920e+003;5.798713e+001
3.941848e+003;5.807573e+001
3.943777e+003;5.803546e+001
3.945705e+003;5.801138e+001
3.947634e+003;5.807975e+001
3.949562e+003;5.794757e+001
3.951491e+003;5.796630e+001
3.953419e+003;5.808707e+001
3.955348e+003;5.793449e+001
3.957276e+003;5.792357e+001
3.959205e+003;5.800428e+001
3.961133e+003;5.791765e+001
3.963062e+003;5.797612e+001
3.964990e+003;5.796443e+001
3.966919e+003;5.783197e+001
3.968847e+003;5.796360e+001
3.970776e+003;5.797160e+001
3.972704e+003;5.782088e+001
3.974633e+003;5.790517e+001
3.976561e+003;5.790237e+001
3.978490e+003;5.785735e+001
3.980418e+003;5.793416e+001
3.982347e+003;5.781403e+001
3.984275e+003;5.780305e+001
3.986204e+003;5.794400e+001
3.988132e+003;5.782332e+001
3.990061e+003;5.778520e+001
3.991989e+003;5.787210e+001
3.993918e+003;5.779666e+001
3.995846e+003;5.784208e+001
3.997775e+003;5.784476e+001
3.999703e+003;5.770910e+001
