3.991989e+002;1.040527e+002
4.011274e+002;1.033978e+002
4.030559e+002;1.032772e+002
4.049844e+002;1.040121e+002
4.069129e+002;1.036412e+002
4.088414e+002;1.031237e+002
4.107699e+002;1.037898e+002
4.126984e+002;1.049339e+002
4.146269e+002;1.046903e+002
4.165554e+002;1.039114e+002
4.184839e+002;1.044492e+002
4.204124e+002;1.053116e+002
4.223409e+002;1.056108e+002
4.242694e+002;1.057494e+002
4.261979e+002;1.065840e+002
4.281264e+002;1.069998e+002
4.300549e+002;1.068526e+002
4.319834e+002;1.074466e+002
4.339119e+002;1.086219e+002
4.358404e+002;1.093537e+002
4.377689e+002;1.094031e+002
4.396974e+002;1.101798e+002
4.416259e+002;1.110673e+002
4.435544e+002;1.115704e+002
4.454829e+002;1.125054e+002
4.474114e+002;1.135419e+002
4.493399e+002;1.142469e+002
4.512684e+002;1.149322e+002
4.531969e+002;1.156386e+002
4.551254e+002;1.162054e+002
4.570539e+002;1.165560e+002
4.589824e+002;1.165248e+002
4.609109e+002;1.164846e+002
4.628394e+002;1.165110e+002
4.647679e+002;1.164300e+002
4.666964e+002;1.158191e+002
4.686248e+002;1.147286e+002
4.705533e+002;1.135076e+002
4.724818e+002;1.121901e+002
4.744103e+002;1.110227e+002
4.763388e+002;1.098873e+002
4.782673e+002;1.087757e+002
4.801958e+002;1.077498e+002
4.821243e+002;1.067231e+002
4.840528e+002;1.058758e+002
4.859813e+002;1.052462e+002
4.879098e+002;1.046851e+002
4.898383e+002;1.043061e+002
4.917668e+002;1.040167e+002
4.936953e+002;1.037619e+002
4.956238e+002;1.035598e+002
4.975523e+002;1.034161e+002
4.994808e+002;1.033502e+002
5.014093e+002;1.032195e+002
5.033378e+002;1.029913e+002
5.052663e+002;1.027896e+002
5.071948e+002;1.026614e+002
5.091233e+002;1.028611e+002
5.110518e+002;1.031451e+002
5.129803e+002;1.031418e+002
5.149088e+002;1.030740e+002
5.168373e+002;1.028967e+002
5.187657e+002;1.027880e+002
5.206943e+002;1.028255e+002
5.226227e+002;1.028041e+002
5.245513e+002;1.027018e+002
5.264797e+002;1.027406e+002
5.284083e+002;1.028597e+002
5.303367e+002;1.028055e+002
5.322653e+002;1.026944e+002
5.341937e+002;1.027359e+002
5.361223e+002;1.027842e+002
5.380507e+002;1.028309e+002
5.399792e+002;1.028598e+002
5.419077e+002;1.029059e+002
5.438362e+002;1.028593e+002
5.457647e+002;1.027352e+002
5.476932e+002;1.026824e+002
5.496217e+002;1.027117e+002
5.515502e+002;1.027206e+002
5.534787e+002;1.027699e+002
5.554072e+002;1.027309e+002
5.573357e+002;1.025977e+002
5.592642e+002;1.024612e+002
5.611927e+002;1.023361e+002
5.631212e+002;1.023038e+002
5.650497e+002;1.022852e+002
5.669782e+002;1.021511e+002
5.689067e+002;1.019432e+002
5.708352e+002;1.017776e+002
5.727637e+002;1.015177e+002
5.746922e+002;1.012790e+002
5.766207e+002;1.010861e+002
5.785492e+002;1.008825e+002
5.804777e+002;1.006727e+002
5.824062e+002;1.004198e+002
5.843347e+002;1.000938e+002
5.862632e+002;9.974844e+001
5.881917e+002;9.939802e+001
5.901202e+002;9.909547e+001
5.920486e+002;9.881829e+001
5.939772e+002;9.861075e+001
5.959056e+002;9.835999e+001
5.978342e+002;9.805577e+001
5.997626e+002;9.773100e+001
6.016912e+002;9.750038e+001
6.036196e+002;9.723075e+001
6.055482e+002;9.709270e+001
6.074766e+002;9.701300e+001
6.094052e+002;9.680973e+001
6.113336e+002;9.659313e+001
6.132621e+002;9.633358e+001
6.151906e+002;9.621280e+001
6.171191e+002;9.604184e+001
6.190476e+002;9.598537e+001
6.209761e+002;9.592073e+001
6.229046e+002;9.565311e+001
6.248331e+002;9.543968e+001
6.267616e+002;9.528370e+001
6.286901e+002;9.499361e+001
6.306186e+002;9.473299e+001
6.325471e+002;9.460961e+001
6.344756e+002;9.454745e+001
6.364041e+002;9.456488e+001
6.383326e+002;9.455198e+001
6.402611e+002;9.450272e+001
6.421896e+002;9.444877e+001
6.441181e+002;9.450173e+001
6.460466e+002;9.458770e+001
6.479751e+002;9.467595e+001
6.499036e+002;9.478098e+001
6.518321e+002;9.487447e+001
6.537606e+002;9.495938e+001
6.556891e+002;9.504449e+001
6.576176e+002;9.514661e+001
6.595461e+002;9.530420e+001
6.614745e+002;9.552660e+001
6.634031e+002;9.574937e+001
6.653315e+002;9.592730e+001
6.672601e+002;9.610077e+001
6.691885e+002;9.629018e+001
6.711171e+002;9.649290e+001
6.730455e+002;9.673250e+001
6.749741e+002;9.699288e+001
6.769025e+002;9.722926e+001
6.788311e+002;9.745030e+001
6.807595e+002;9.764333e+001
6.826880e+002;9.784958e+001
6.846165e+002;9.808329e+001
6.865450e+002;9.832880e+001
6.884735e+002;9.857888e+001
6.904020e+002;9.883986e+001
6.923305e+002;9.906133e+001
6.942590e+002;9.921660e+001
6.961875e+002;9.940164e+001
6.981160e+002;9.962225e+001
7.000445e+002;9.985876e+001
7.019730e+002;1.001075e+002
7.039015e+002;1.003274e+002
7.058300e+002;1.005104e+002
7.077585e+002;1.006732e+002
7.096870e+002;1.008259e+002
7.116155e+002;1.010004e+002
7.135440e+002;1.012358e+002
7.154725e+002;1.014878e+002
7.174010e+002;1.016692e+002
7.193295e+002;1.017914e+002
7.212580e+002;1.018904e+002
7.231865e+002;1.020157e+002
7.251150e+002;1.021673e+002
7.270435e+002;1.023389e+002
7.289720e+002;1.025271e+002
7.309005e+002;1.026423e+002
7.328290e+002;1.027079e+002
7.347574e+002;1.027905e+002
7.366860e+002;1.028599e+002
7.386144e+002;1.029432e+002
7.405430e+002;1.030766e+002
7.424714e+002;1.031914e+002
7.444000e+002;1.032894e+002
7.463284e+002;1.033255e+002
7.482570e+002;1.033278e+002
7.501854e+002;1.033403e+002
7.521140e+002;1.034201e+002
7.540424e+002;1.035204e+002
7.559709e+002;1.035984e+002
7.578994e+002;1.036403e+002
7.598279e+002;1.036347e+002
7.617564e+002;1.035922e+002
7.636849e+002;1.035987e+002
7.656134e+002;1.036561e+002
7.675419e+002;1.037554e+002
7.694704e+002;1.038695e+002
7.713989e+002;1.039840e+002
7.733274e+002;1.040795e+002
7.752559e+002;1.042126e+002
7.771844e+002;1.044150e+002
7.791129e+002;1.046591e+002
7.810414e+002;1.049277e+002
7.829699e+002;1.051774e+002
7.848984e+002;1.053750e+002
7.868269e+002;1.055433e+002
7.887554e+002;1.056920e+002
7.906839e+002;1.058868e+002
7.926124e+002;1.061121e+002
7.945409e+002;1.063296e+002
7.964694e+002;1.064915e+002
7.983979e+002;1.066193e+002
8.003264e+002;1.066935e+002
8.022549e+002;1.067395e+002
8.041833e+002;1.068343e+002
8.061119e+002;1.069398e+002
8.080403e+002;1.070281e+002
8.099689e+002;1.070835e+002
8.118973e+002;1.070700e+002
8.138259e+002;1.070149e+002
8.157543e+002;1.069730e+002
8.176829e+002;1.069629e+002
8.196113e+002;1.069692e+002
8.215399e+002;1.069476e+002
8.234683e+002;1.068784e+002
8.253969e+002;1.067377e+002
8.273253e+002;1.065858e+002
8.292538e+002;1.064519e+002
8.311823e+002;1.063406e+002
8.331108e+002;1.062608e+002
8.350393e+002;1.061770e+002
8.369678e+002;1.060606e+002
8.388963e+002;1.059144e+002
8.408248e+002;1.057876e+002
8.427533e+002;1.056829e+002
8.446818e+002;1.055915e+002
8.466103e+002;1.055173e+002
8.485388e+002;1.054469e+002
8.504673e+002;1.053485e+002
8.523958e+002;1.052064e+002
8.543243e+002;1.050391e+002
8.562528e+002;1.049010e+002
8.581813e+002;1.048184e+002
8.601098e+002;1.047379e+002
8.620383e+002;1.046296e+002
8.639668e+002;1.044837e+002
8.658953e+002;1.043210e+002
8.678238e+002;1.041914e+002
8.697523e+002;1.040945e+002
8.716808e+002;1.040290e+002
8.736093e+002;1.039818e+002
8.755378e+002;1.039060e+002
8.774662e+002;1.038244e+002
8.793948e+002;1.037629e+002
8.813232e+002;1.037069e+002
8.832518e+002;1.037003e+002
8.851802e+002;1.037530e+002
8.871088e+002;1.037812e+002
8.890372e+002;1.037737e+002
8.909658e+002;1.037498e+002
8.928942e+002;1.037283e+002
8.948227e+002;1.037625e+002
8.967512e+002;1.038137e+002
8.986797e+002;1.038538e+002
9.006082e+002;1.039104e+002
9.025367e+002;1.039310e+002
9.044652e+002;1.039210e+002
9.063937e+002;1.039052e+002
9.083222e+002;1.039062e+002
9.102507e+002;1.039542e+002
9.121792e+002;1.040114e+002
9.141077e+002;1.040282e+002
9.160362e+002;1.040165e+002
9.179647e+002;1.039855e+002
9.198932e+002;1.039536e+002
9.218217e+002;1.039646e+002
9.237502e+002;1.039891e+002
9.256786e+002;1.040186e+002
9.276072e+002;1.040267e+002
9.295356e+002;1.039768e+002
9.314642e+002;1.039250e+002
9.333926e+002;1.039186e+002
9.353212e+002;1.039223e+002
9.372496e+002;1.039328e+002
9.391782e+002;1.039571e+002
9.411066e+002;1.039330e+002
9.430352e+002;1.038847e+002
9.449636e+002;1.038467e+002
9.468922e+002;1.038398e+002
9.488206e+002;1.038601e+002
9.507491e+002;1.039010e+002
9.526776e+002;1.039037e+002
9.546061e+002;1.038689e+002
9.565346e+002;1.038252e+002
9.584631e+002;1.037797e+002
9.603916e+002;1.037797e+002
9.623201e+002;1.038259e+002
9.642486e+002;1.038524e+002
9.661771e+002;1.038521e+002
9.681056e+002;1.038221e+002
9.700341e+002;1.037966e+002
9.719626e+002;1.037860e+002
9.738911e+002;1.038059e+002
9.758196e+002;1.038495e+002
9.777481e+002;1.038983e+002
9.796766e+002;1.039191e+002
9.816051e+002;1.039280e+002
9.835336e+002;1.039473e+002
9.854621e+002;1.039905e+002
9.873906e+002;1.040902e+002
9.893191e+002;1.042264e+002
9.912476e+002;1.043571e+002
9.931761e+002;1.044765e+002
9.951046e+002;1.046117e+002
9.970331e+002;1.047832e+002
9.989615e+002;1.050412e+002
1.000890e+003;1.053838e+002
1.002819e+003;1.057837e+002
1.004747e+003;1.062216e+002
1.006676e+003;1.067028e+002
1.008604e+003;1.072522e+002
1.010533e+003;1.079372e+002
1.012461e+003;1.087584e+002
1.014390e+003;1.096970e+002
1.016318e+003;1.107435e+002
1.018247e+003;1.118744e+002
1.020175e+003;1.130941e+002
1.022104e+003;1.144338e+002
1.024032e+003;1.159065e+002
1.025961e+003;1.175107e+002
1.027889e+003;1.192184e+002
1.029818e+003;1.209901e+002
1.031746e+003;1.228162e+002
1.033675e+003;1.246946e+002
1.035603e+003;1.266168e+002
1.037531e+003;1.286317e+002
1.039460e+003;1.307197e+002
1.041389e+003;1.328191e+002
1.043317e+003;1.349131e+002
1.045245e+003;1.369850e+002
1.047174e+003;1.390503e+002
1.049103e+003;1.411597e+002
1.051031e+003;1.432791e+002
1.052959e+003;1.453780e+002
1.054888e+003;1.474558e+002
1.056817e+003;1.494373e+002
1.058745e+003;1.513357e+002
1.060673e+003;1.532000e+002
1.062602e+003;1.550279e+002
1.064531e+003;1.567820e+002
1.066459e+003;1.584427e+002
1.068387e+003;1.599828e+002
1.070316e+003;1.613998e+002
1.072245e+003;1.626767e+002
1.074173e+003;1.637881e+002
1.076101e+003;1.647930e+002
1.078030e+003;1.656800e+002
1.079958e+003;1.663580e+002
1.081887e+003;1.668450e+002
1.083815e+003;1.670983e+002
1.085744e+003;1.670962e+002
1.087672e+003;1.668871e+002
1.089601e+003;1.664217e+002
1.091529e+003;1.656959e+002
1.093458e+003;1.646878e+002
1.095386e+003;1.633314e+002
1.097315e+003;1.616221e+002
1.099243e+003;1.596067e+002
1.101172e+003;1.572728e+002
1.103100e+003;1.546733e+002
1.105029e+003;1.518526e+002
1.106957e+003;1.488138e+002
1.108886e+003;1.456380e+002
1.110814e+003;1.424195e+002
1.112743e+003;1.392382e+002
1.114671e+003;1.362511e+002
1.116600e+003;1.335463e+002
1.118528e+003;1.311514e+002
1.120457e+003;1.290932e+002
1.122385e+003;1.273304e+002
1.124314e+003;1.258288e+002
1.126242e+003;1.246087e+002
1.128171e+003;1.236262e+002
1.130099e+003;1.228527e+002
1.132028e+003;1.222525e+002
1.133956e+003;1.217468e+002
1.135885e+003;1.213065e+002
1.137813e+003;1.209405e+002
1.139742e+003;1.206353e+002
1.141670e+003;1.204085e+002
1.143599e+003;1.202545e+002
1.145527e+003;1.200986e+002
1.147456e+003;1.199377e+002
1.149384e+003;1.197788e+002
1.151313e+003;1.196290e+002
1.153241e+003;1.195006e+002
1.155170e+003;1.194186e+002
1.157098e+003;1.193436e+002
1.159027e+003;1.192666e+002
1.160955e+003;1.191659e+002
1.162884e+003;1.190397e+002
1.164812e+003;1.189457e+002
1.166741e+003;1.188628e+002
1.168669e+003;1.187973e+002
1.170598e+003;1.187491e+002
1.172526e+003;1.186716e+002
1.174455e+003;1.185625e+002
1.176383e+003;1.184660e+002
1.178312e+003;1.183557e+002
1.180240e+003;1.183061e+002
1.182169e+003;1.183184e+002
1.184097e+003;1.182029e+002
1.186026e+003;1.181115e+002
1.187954e+003;1.180184e+002
1.189883e+003;1.179119e+002
1.191811e+003;1.178316e+002
1.193740e+003;1.177865e+002
1.195668e+003;1.177237e+002
1.197597e+003;1.176561e+002
1.199525e+003;1.175570e+002
1.201454e+003;1.174364e+002
1.203382e+003;1.173379e+002
1.205311e+003;1.172604e+002
1.207239e+003;1.171873e+002
1.209168e+003;1.171234e+002
1.211096e+003;1.170208e+002
1.213025e+003;1.168928e+002
1.214953e+003;1.167737e+002
1.216882e+003;1.166643e+002
1.218810e+003;1.165771e+002
1.220739e+003;1.165112e+002
1.222667e+003;1.164146e+002
1.224596e+003;1.162976e+002
1.226524e+003;1.161757e+002
1.228453e+003;1.160510e+002
1.230381e+003;1.159481e+002
1.232310e+003;1.158762e+002
1.234238e+003;1.157941e+002
1.236167e+003;1.156980e+002
1.238095e+003;1.155910e+002
1.240024e+003;1.154733e+002
1.241952e+003;1.153827e+002
1.243881e+003;1.153194e+002
1.245809e+003;1.152550e+002
1.247738e+003;1.151963e+002
1.249666e+003;1.151153e+002
1.251595e+003;1.150092e+002
1.253523e+003;1.149124e+002
1.255452e+003;1.148292e+002
1.257380e+003;1.147514e+002
1.259309e+003;1.146811e+002
1.261237e+003;1.145824e+002
1.263166e+003;1.144520e+002
1.265094e+003;1.143170e+002
1.267023e+003;1.141805e+002
1.268951e+003;1.140646e+002
1.270880e+003;1.139820e+002
1.272808e+003;1.138884e+002
1.274737e+003;1.137825e+002
1.276665e+003;1.136776e+002
1.278594e+003;1.135713e+002
1.280522e+003;1.134913e+002
1.282451e+003;1.134440e+002
1.284379e+003;1.134015e+002
1.286308e+003;1.133559e+002
1.288236e+003;1.132981e+002
1.290165e+003;1.132248e+002
1.292093e+003;1.131650e+002
1.294022e+003;1.131310e+002
1.295950e+003;1.131088e+002
1.297879e+003;1.130951e+002
1.299807e+003;1.130657e+002
1.301736e+003;1.130107e+002
1.303664e+003;1.129631e+002
1.305593e+003;1.129296e+002
1.307521e+003;1.129097e+002
1.309450e+003;1.129107e+002
1.311378e+003;1.128993e+002
1.313307e+003;1.128639e+002
1.315235e+003;1.128268e+002
1.317164e+003;1.127922e+002
1.319092e+003;1.127698e+002
1.321021e+003;1.127711e+002
1.322949e+003;1.127710e+002
1.324878e+003;1.127573e+002
1.326806e+003;1.127334e+002
1.328735e+003;1.126985e+002
1.330663e+003;1.126745e+002
1.332592e+003;1.126732e+002
1.334520e+003;1.126759e+002
1.336449e+003;1.126759e+002
1.338377e+003;1.126633e+002
1.340306e+003;1.126320e+002
1.342234e+003;1.126063e+002
1.344163e+003;1.125982e+002
1.346091e+003;1.126035e+002
1.348020e+003;1.126137e+002
1.349948e+003;1.126159e+002
1.351877e+003;1.125956e+002
1.353805e+003;1.125722e+002
1.355734e+003;1.125615e+002
1.357662e+003;1.125575e+002
1.359591e+003;1.125724e+002
1.361519e+003;1.125873e+002
1.363448e+003;1.125774e+002
1.365376e+003;1.125569e+002
1.367305e+003;1.125394e+002
1.369233e+003;1.125264e+002
1.371161e+003;1.125372e+002
1.373090e+003;1.125508e+002
1.375019e+003;1.125480e+002
1.376947e+003;1.125423e+002
1.378875e+003;1.125228e+002
1.380804e+003;1.125038e+002
1.382733e+003;1.125096e+002
1.384661e+003;1.125182e+002
1.386589e+003;1.125251e+002
1.388518e+003;1.125295e+002
1.390447e+003;1.125124e+002
1.392375e+003;1.124825e+002
1.394303e+003;1.124682e+002
1.396232e+003;1.124783e+002
1.398161e+003;1.125091e+002
1.400089e+003;1.125265e+002
1.402017e+003;1.125083e+002
1.403946e+003;1.124926e+002
1.405875e+003;1.124840e+002
1.407803e+003;1.124706e+002
1.409731e+003;1.124862e+002
1.411660e+003;1.125021e+002
1.413589e+003;1.124954e+002
1.415517e+003;1.124857e+002
1.417445e+003;1.124432e+002
1.419374e+003;1.123965e+002
1.421302e+003;1.124487e+002
1.423231e+003;1.124894e+002
1.425159e+003;1.124895e+002
1.427088e+003;1.124887e+002
1.429016e+003;1.124676e+002
1.430945e+003;1.124491e+002
1.432873e+003;1.124609e+002
1.434802e+003;1.124446e+002
1.436730e+003;1.124409e+002
1.438659e+003;1.124800e+002
1.440587e+003;1.124726e+002
1.442516e+003;1.124549e+002
1.444444e+003;1.124557e+002
1.446373e+003;1.124432e+002
1.448301e+003;1.124564e+002
1.450230e+003;1.124725e+002
1.452158e+003;1.124529e+002
1.454087e+003;1.124464e+002
1.456015e+003;1.124518e+002
1.457944e+003;1.124177e+002
1.459872e+003;1.124235e+002
1.461801e+003;1.124410e+002
1.463729e+003;1.124368e+002
1.465658e+003;1.124379e+002
1.467586e+003;1.124061e+002
1.469515e+003;1.123716e+002
1.471443e+003;1.123608e+002
1.473372e+003;1.123856e+002
1.475300e+003;1.124062e+002
1.477229e+003;1.124107e+002
1.479157e+003;1.123818e+002
1.481086e+003;1.123642e+002
1.483014e+003;1.123692e+002
1.484943e+003;1.123577e+002
1.486871e+003;1.123679e+002
1.488800e+003;1.123745e+002
1.490728e+003;1.123401e+002
1.492657e+003;1.123368e+002
1.494585e+003;1.123206e+002
1.496514e+003;1.122834e+002
1.498442e+003;1.123148e+002
1.500371e+003;1.123357e+002
1.502299e+003;1.123199e+002
1.504228e+003;1.122959e+002
1.506156e+003;1.122549e+002
1.508085e+003;1.122485e+002
1.510013e+003;1.122941e+002
1.511942e+003;1.123002e+002
1.513870e+003;1.122883e+002
1.515799e+003;1.122951e+002
1.517727e+003;1.122732e+002
1.519656e+003;1.122202e+002
1.521584e+003;1.122090e+002
1.523513e+003;1.122374e+002
1.525441e+003;1.122562e+002
1.527370e+003;1.122623e+002
1.529298e+003;1.122299e+002
1.531227e+003;1.122180e+002
1.533155e+003;1.122206e+002
1.535084e+003;1.121994e+002
1.537012e+003;1.122074e+002
1.538941e+003;1.121947e+002
1.540869e+003;1.121632e+002
1.542798e+003;1.121888e+002
1.544726e+003;1.121764e+002
1.546655e+003;1.121508e+002
1.548583e+003;1.121671e+002
1.550512e+003;1.121635e+002
1.552440e+003;1.121250e+002
1.554369e+003;1.121080e+002
1.556297e+003;1.120818e+002
1.558226e+003;1.120419e+002
1.560154e+003;1.120356e+002
1.562083e+003;1.120722e+002
1.564011e+003;1.120963e+002
1.565940e+003;1.121031e+002
1.567868e+003;1.120705e+002
1.569797e+003;1.120696e+002
1.571725e+003;1.120717e+002
1.573654e+003;1.120270e+002
1.575582e+003;1.119934e+002
1.577511e+003;1.120185e+002
1.579439e+003;1.120227e+002
1.581368e+003;1.120267e+002
1.583296e+003;1.120161e+002
1.585225e+003;1.119903e+002
1.587153e+003;1.120134e+002
1.589082e+003;1.120051e+002
1.591010e+003;1.119806e+002
1.592939e+003;1.119911e+002
1.594867e+003;1.119653e+002
1.596796e+003;1.119453e+002
1.598724e+003;1.119680e+002
1.600653e+003;1.119461e+002
1.602581e+003;1.119384e+002
1.604510e+003;1.119503e+002
1.606438e+003;1.119086e+002
1.608367e+003;1.119000e+002
1.610295e+003;1.119157e+002
1.612224e+003;1.118907e+002
1.614152e+003;1.118952e+002
1.616081e+003;1.118965e+002
1.618009e+003;1.118586e+002
1.619938e+003;1.118624e+002
1.621866e+003;1.118423e+002
1.623795e+003;1.118097e+002
1.625723e+003;1.118469e+002
1.627652e+003;1.118431e+002
1.629580e+003;1.118089e+002
1.631509e+003;1.118145e+002
1.633437e+003;1.117842e+002
1.635366e+003;1.117656e+002
1.637294e+003;1.117866e+002
1.639223e+003;1.117621e+002
1.641151e+003;1.117429e+002
1.643080e+003;1.117459e+002
1.645008e+003;1.116893e+002
1.646937e+003;1.116700e+002
1.648865e+003;1.116928e+002
1.650794e+003;1.116533e+002
1.652722e+003;1.116029e+002
1.654651e+003;1.116139e+002
1.656579e+003;1.116069e+002
1.658508e+003;1.116091e+002
1.660436e+003;1.116003e+002
1.662365e+003;1.115622e+002
1.664293e+003;1.115740e+002
1.666222e+003;1.115500e+002
1.668150e+003;1.115002e+002
1.670079e+003;1.115058e+002
1.672007e+003;1.114812e+002
1.673936e+003;1.114289e+002
1.675864e+003;1.114393e+002
1.677793e+003;1.114239e+002
1.679721e+003;1.114002e+002
1.681650e+003;1.113932e+002
1.683578e+003;1.113293e+002
1.685507e+003;1.113288e+002
1.687435e+003;1.113525e+002
1.689364e+003;1.113074e+002
1.691292e+003;1.112985e+002
1.693221e+003;1.112889e+002
1.695149e+003;1.112268e+002
1.697078e+003;1.112215e+002
1.699006e+003;1.111763e+002
1.700935e+003;1.111282e+002
1.702863e+003;1.111849e+002
1.704792e+003;1.111658e+002
1.706720e+003;1.111166e+002
1.708649e+003;1.111274e+002
1.710577e+003;1.111043e+002
1.712505e+003;1.110685e+002
1.714434e+003;1.110691e+002
1.716363e+003;1.110072e+002
1.718291e+003;1.109837e+002
1.720219e+003;1.110134e+002
1.722148e+003;1.109691e+002
1.724077e+003;1.109487e+002
1.726005e+003;1.109570e+002
1.727933e+003;1.109032e+002
1.729862e+003;1.108833e+002
1.731791e+003;1.108513e+002
1.733719e+003;1.107817e+002
1.735647e+003;1.108058e+002
1.737576e+003;1.108053e+002
1.739505e+003;1.107499e+002
1.741433e+003;1.107555e+002
1.743361e+003;1.107316e+002
1.745290e+003;1.106799e+002
1.747219e+003;1.106815e+002
1.749147e+003;1.106475e+002
1.751075e+003;1.106143e+002
1.753004e+003;1.106288e+002
1.754932e+003;1.105796e+002
1.756861e+003;1.105408e+002
1.758789e+003;1.105463e+002
1.760718e+003;1.104967e+002
1.762646e+003;1.104740e+002
1.764575e+003;1.104752e+002
1.766503e+003;1.104187e+002
1.768432e+003;1.104043e+002
1.770360e+003;1.103869e+002
1.772289e+003;1.103218e+002
1.774217e+003;1.103264e+002
1.776146e+003;1.103218e+002
1.778074e+003;1.102698e+002
1.780003e+003;1.102665e+002
1.781931e+003;1.102373e+002
1.783860e+003;1.101873e+002
1.785788e+003;1.101933e+002
1.787717e+003;1.101588e+002
1.789645e+003;1.101071e+002
1.791574e+003;1.101077e+002
1.793502e+003;1.100629e+002
1.795431e+003;1.100299e+002
1.797359e+003;1.100351e+002
1.799288e+003;1.099822e+002
1.801216e+003;1.099580e+002
1.803145e+003;1.099593e+002
1.805073e+003;1.098984e+002
1.807002e+003;1.098810e+002
1.808930e+003;1.098702e+002
1.810859e+003;1.098104e+002
1.812787e+003;1.098073e+002
1.814716e+003;1.097920e+002
1.816644e+003;1.097327e+002
1.818573e+003;1.097321e+002
1.820501e+003;1.097025e+002
1.822430e+003;1.096474e+002
1.824358e+003;1.096488e+002
1.826287e+003;1.096124e+002
1.828215e+003;1.095611e+002
1.830144e+003;1.095649e+002
1.832072e+003;1.095210e+002
1.834001e+003;1.094862e+002
1.835929e+003;1.094912e+002
1.837858e+003;1.094327e+002
1.839786e+003;1.094051e+002
1.841715e+003;1.094021e+002
1.843643e+003;1.093318e+002
1.845572e+003;1.093210e+002
1.847500e+003;1.093136e+002
1.849429e+003;1.092487e+002
1.851357e+003;1.092464e+002
1.853286e+003;1.092264e+002
1.855214e+003;1.091563e+002
1.857143e+003;1.091571e+002
1.859071e+003;1.091243e+002
1.861000e+003;1.090623e+002
1.862928e+003;1.090680e+002
1.864857e+003;1.090199e+002
1.866785e+003;1.089598e+002
1.868714e+003;1.089618e+002
1.870642e+003;1.089008e+002
1.872571e+003;1.088519e+002
1.874499e+003;1.088517e+002
1.876428e+003;1.087799e+002
1.878356e+003;1.087409e+002
1.880285e+003;1.087286e+002
1.882213e+003;1.086433e+002
1.884142e+003;1.086154e+002
1.886070e+003;1.085899e+002
1.887999e+003;1.084911e+002
1.889927e+003;1.084634e+002
1.891856e+003;1.084267e+002
1.893784e+003;1.083340e+002
1.895713e+003;1.083132e+002
1.897641e+003;1.082514e+002
1.899570e+003;1.081583e+002
1.901498e+003;1.081400e+002
1.903427e+003;1.080570e+002
1.905355e+003;1.079609e+002
1.907284e+003;1.079344e+002
1.909212e+003;1.078352e+002
1.911141e+003;1.077475e+002
1.913069e+003;1.077063e+002
1.914998e+003;1.075846e+002
1.916926e+003;1.075027e+002
1.918855e+003;1.074525e+002
1.920783e+003;1.073146e+002
1.922712e+003;1.072293e+002
1.924640e+003;1.071583e+002
1.926569e+003;1.070165e+002
1.928497e+003;1.069388e+002
1.930426e+003;1.068394e+002
1.932354e+003;1.066886e+002
1.934283e+003;1.066177e+002
1.936211e+003;1.064962e+002
1.938140e+003;1.063329e+002
1.940068e+003;1.062569e+002
1.941997e+003;1.061178e+002
1.943925e+003;1.059667e+002
1.945854e+003;1.058873e+002
1.947782e+003;1.057240e+002
1.949711e+003;1.055825e+002
1.951639e+003;1.054980e+002
1.953568e+003;1.053192e+002
1.955496e+003;1.051876e+002
1.957425e+003;1.050995e+002
1.959353e+003;1.049232e+002
1.961282e+003;1.048087e+002
1.963210e+003;1.046985e+002
1.965139e+003;1.045168e+002
1.967067e+003;1.044270e+002
1.968996e+003;1.043177e+002
1.970924e+003;1.041455e+002
1.972853e+003;1.040721e+002
1.974781e+003;1.039562e+002
1.976710e+003;1.038078e+002
1.978638e+003;1.037533e+002
1.980567e+003;1.036357e+002
1.982495e+003;1.035195e+002
1.984424e+003;1.034887e+002
1.986352e+003;1.033660e+002
1.988281e+003;1.032766e+002
1.990209e+003;1.032668e+002
1.992138e+003;1.031712e+002
1.994066e+003;1.031298e+002
1.995995e+003;1.031282e+002
1.997923e+003;1.030420e+002
1.999852e+003;1.030460e+002
2.001780e+003;1.030602e+002
2.003709e+003;1.029967e+002
2.005637e+003;1.030366e+002
2.007566e+003;1.030597e+002
2.009494e+003;1.030235e+002
2.011423e+003;1.030894e+002
2.013351e+003;1.031047e+002
2.015280e+003;1.030919e+002
2.017208e+003;1.031832e+002
2.019137e+003;1.031953e+002
2.021065e+003;1.032027e+002
2.022994e+003;1.032974e+002
2.024922e+003;1.033012e+002
2.026851e+003;1.033301e+002
2.028779e+003;1.034155e+002
2.030708e+003;1.034057e+002
2.032636e+003;1.034538e+002
2.034565e+003;1.035305e+002
2.036493e+003;1.035058e+002
2.038422e+003;1.035554e+002
2.040350e+003;1.036126e+002
2.042279e+003;1.035901e+002
2.044207e+003;1.036476e+002
2.046135e+003;1.036764e+002
2.048064e+003;1.036484e+002
2.049992e+003;1.037124e+002
2.051921e+003;1.037171e+002
2.053850e+003;1.036816e+002
2.055778e+003;1.037432e+002
2.057707e+003;1.037379e+002
2.059635e+003;1.037125e+002
2.061563e+003;1.037557e+002
2.063492e+003;1.037197e+002
2.065420e+003;1.037092e+002
2.067349e+003;1.037589e+002
2.069278e+003;1.037099e+002
2.071206e+003;1.036990e+002
2.073135e+003;1.037342e+002
2.075063e+003;1.036854e+002
2.076991e+003;1.036878e+002
2.078920e+003;1.037031e+002
2.080848e+003;1.036482e+002
2.082777e+003;1.036730e+002
2.084706e+003;1.036812e+002
2.086634e+003;1.036154e+002
2.088563e+003;1.036385e+002
2.090491e+003;1.036428e+002
2.092419e+003;1.035998e+002
2.094348e+003;1.036277e+002
2.096276e+003;1.036055e+002
2.098205e+003;1.035666e+002
2.100134e+003;1.036037e+002
2.102062e+003;1.035703e+002
2.103990e+003;1.035357e+002
2.105919e+003;1.035795e+002
2.107847e+003;1.035489e+002
2.109776e+003;1.035264e+002
2.111704e+003;1.035500e+002
2.113633e+003;1.034972e+002
2.115562e+003;1.034949e+002
2.117490e+003;1.035209e+002
2.119418e+003;1.034614e+002
2.121347e+003;1.034616e+002
2.123275e+003;1.034800e+002
2.125204e+003;1.034237e+002
2.127132e+003;1.034288e+002
2.129061e+003;1.034244e+002
2.130990e+003;1.033709e+002
2.132918e+003;1.033914e+002
2.134846e+003;1.033716e+002
2.136775e+003;1.033037e+002
2.138703e+003;1.033225e+002
2.140632e+003;1.032939e+002
2.142560e+003;1.032378e+002
2.144489e+003;1.032535e+002
2.146417e+003;1.032041e+002
2.148346e+003;1.031581e+002
2.150274e+003;1.031742e+002
2.152203e+003;1.031048e+002
2.154131e+003;1.030629e+002
2.156060e+003;1.030774e+002
2.157988e+003;1.030064e+002
2.159917e+003;1.029681e+002
2.161845e+003;1.029543e+002
2.163774e+003;1.028671e+002
2.165702e+003;1.028498e+002
2.167631e+003;1.028346e+002
2.169559e+003;1.027423e+002
2.171488e+003;1.027298e+002
2.173416e+003;1.026993e+002
2.175345e+003;1.026065e+002
2.177273e+003;1.025931e+002
2.179202e+003;1.025409e+002
2.181130e+003;1.024636e+002
2.183059e+003;1.024671e+002
2.184987e+003;1.023930e+002
2.186916e+003;1.023076e+002
2.188844e+003;1.023080e+002
2.190773e+003;1.022328e+002
2.192701e+003;1.021657e+002
2.194630e+003;1.021544e+002
2.196558e+003;1.020634e+002
2.198487e+003;1.020144e+002
2.200415e+003;1.019998e+002
2.202344e+003;1.018959e+002
2.204272e+003;1.018574e+002
2.206201e+003;1.018394e+002
2.208129e+003;1.017385e+002
2.210058e+003;1.017067e+002
2.211986e+003;1.016611e+002
2.213915e+003;1.015586e+002
2.215843e+003;1.015520e+002
2.217772e+003;1.015005e+002
2.219700e+003;1.013961e+002
2.221629e+003;1.013917e+002
2.223557e+003;1.013192e+002
2.225486e+003;1.012212e+002
2.227414e+003;1.012199e+002
2.229343e+003;1.011320e+002
2.231271e+003;1.010591e+002
2.233200e+003;1.010620e+002
2.235128e+003;1.009500e+002
2.237057e+003;1.008850e+002
2.238985e+003;1.008815e+002
2.240914e+003;1.007668e+002
2.242842e+003;1.007302e+002
2.244771e+003;1.007088e+002
2.246699e+003;1.005798e+002
2.248628e+003;1.005633e+002
2.250556e+003;1.005206e+002
2.252485e+003;1.003880e+002
2.254413e+003;1.003967e+002
2.256342e+003;1.003447e+002
2.258270e+003;1.002288e+002
2.260199e+003;1.002362e+002
2.262127e+003;1.001448e+002
2.264056e+003;1.000478e+002
2.265984e+003;1.000731e+002
2.267913e+003;9.996411e+001
2.269841e+003;9.988435e+001
2.271770e+003;9.989828e+001
2.273698e+003;9.977049e+001
2.275627e+003;9.971729e+001
2.277555e+003;9.971809e+001
2.279484e+003;9.958117e+001
2.281412e+003;9.956293e+001
2.283341e+003;9.954388e+001
2.285269e+003;9.939176e+001
2.287198e+003;9.938443e+001
2.289126e+003;9.934647e+001
2.291055e+003;9.921655e+001
2.292983e+003;9.922872e+001
2.294912e+003;9.915430e+001
2.296840e+003;9.903387e+001
2.298769e+003;9.905737e+001
2.300697e+003;9.895396e+001
2.302626e+003;9.884936e+001
2.304554e+003;9.888098e+001
2.306483e+003;9.876656e+001
2.308411e+003;9.868742e+001
2.310340e+003;9.869635e+001
2.312268e+003;9.855853e+001
2.314197e+003;9.852068e+001
2.316125e+003;9.852671e+001
2.318054e+003;9.837104e+001
2.319982e+003;9.834991e+001
2.321911e+003;9.833076e+001
2.323839e+003;9.817855e+001
2.325768e+003;9.818143e+001
2.327696e+003;9.813417e+001
2.329625e+003;9.799539e+001
2.331553e+003;9.802362e+001
2.333482e+003;9.794540e+001
2.335410e+003;9.780968e+001
2.337339e+003;9.784182e+001
2.339267e+003;9.774374e+001
2.341196e+003;9.764278e+001
2.343124e+003;9.766988e+001
2.345053e+003;9.753890e+001
2.346981e+003;9.747014e+001
2.348910e+003;9.748709e+001
2.350838e+003;9.733524e+001
2.352767e+003;9.729516e+001
2.354695e+003;9.730312e+001
2.356624e+003;9.714988e+001
2.358552e+003;9.712975e+001
2.360481e+003;9.710015e+001
2.362409e+003;9.694946e+001
2.364338e+003;9.696851e+001
2.366266e+003;9.691715e+001
2.368195e+003;9.676437e+001
2.370123e+003;9.679076e+001
2.372052e+003;9.670938e+001
2.373980e+003;9.658089e+001
2.375908e+003;9.661482e+001
2.377837e+003;9.650240e+001
2.379766e+003;9.640480e+001
2.381694e+003;9.644302e+001
2.383623e+003;9.629813e+001
2.385551e+003;9.622118e+001
2.387479e+003;9.624916e+001
2.389408e+003;9.609556e+001
2.391336e+003;9.605534e+001
2.393265e+003;9.605772e+001
2.395194e+003;9.589162e+001
2.397122e+003;9.588684e+001
2.399051e+003;9.586277e+001
2.400979e+003;9.569660e+001
2.402907e+003;9.571574e+001
2.404836e+003;9.566612e+001
2.406764e+003;9.551230e+001
2.408693e+003;9.553886e+001
2.410622e+003;9.544449e+001
2.412550e+003;9.531924e+001
2.414479e+003;9.536874e+001
2.416407e+003;9.524902e+001
2.418335e+003;9.514295e+001
2.420264e+003;9.517834e+001
2.422192e+003;9.503502e+001
2.424121e+003;9.496712e+001
2.426050e+003;9.499149e+001
2.427978e+003;9.483372e+001
2.429906e+003;9.480208e+001
2.431835e+003;9.480499e+001
2.433763e+003;9.462933e+001
2.435692e+003;9.462165e+001
2.437620e+003;9.459868e+001
2.439549e+003;9.443846e+001
2.441478e+003;9.445750e+001
2.443406e+003;9.439453e+001
2.445334e+003;9.424274e+001
2.447263e+003;9.428165e+001
2.449191e+003;9.418647e+001
2.451120e+003;9.405681e+001
2.453048e+003;9.410402e+001
2.454977e+003;9.398032e+001
2.456906e+003;9.387443e+001
2.458834e+003;9.390839e+001
2.460762e+003;9.375901e+001
2.462691e+003;9.369913e+001
2.464619e+003;9.372768e+001
2.466548e+003;9.355852e+001
2.468476e+003;9.352040e+001
2.470405e+003;9.352211e+001
2.472333e+003;9.335431e+001
2.474262e+003;9.335310e+001
2.476190e+003;9.332182e+001
2.478119e+003;9.315683e+001
2.480047e+003;9.318522e+001
2.481976e+003;9.311659e+001
2.483904e+003;9.295879e+001
2.485833e+003;9.300159e+001
2.487761e+003;9.290887e+001
2.489690e+003;9.278539e+001
2.491618e+003;9.282806e+001
2.493547e+003;9.269056e+001
2.495475e+003;9.259363e+001
2.497404e+003;9.263724e+001
2.499332e+003;9.248174e+001
2.501261e+003;9.241634e+001
2.503189e+003;9.244389e+001
2.505118e+003;9.228098e+001
2.507046e+003;9.225206e+001
2.508975e+003;9.224254e+001
2.510903e+003;9.206409e+001
2.512832e+003;9.207206e+001
2.514760e+003;9.204244e+001
2.516689e+003;9.187256e+001
2.518617e+003;9.189923e+001
2.520546e+003;9.183659e+001
2.522474e+003;9.168443e+001
2.524403e+003;9.171893e+001
2.526331e+003;9.161573e+001
2.528260e+003;9.149605e+001
2.530188e+003;9.154580e+001
2.532117e+003;9.140974e+001
2.534045e+003;9.130939e+001
2.535974e+003;9.135177e+001
2.537902e+003;9.120198e+001
2.539831e+003;9.114240e+001
2.541759e+003;9.116019e+001
2.543688e+003;9.098608e+001
2.545616e+003;9.096602e+001
2.547545e+003;9.096915e+001
2.549473e+003;9.079022e+001
2.551402e+003;9.079538e+001
2.553330e+003;9.076353e+001
2.555259e+003;9.059653e+001
2.557187e+003;9.062196e+001
2.559116e+003;9.054455e+001
2.561044e+003;9.039828e+001
2.562973e+003;9.045267e+001
2.564901e+003;9.034183e+001
2.566830e+003;9.020747e+001
2.568758e+003;9.025417e+001
2.570687e+003;9.012646e+001
2.572615e+003;9.003857e+001
2.574544e+003;9.007116e+001
2.576472e+003;8.991182e+001
2.578401e+003;8.986330e+001
2.580329e+003;8.988415e+001
2.582258e+003;8.970417e+001
2.584186e+003;8.967998e+001
2.586115e+003;8.967707e+001
2.588043e+003;8.950698e+001
2.589972e+003;8.951344e+001
2.591900e+003;8.946450e+001
2.593829e+003;8.930155e+001
2.595757e+003;8.934174e+001
2.597686e+003;8.926674e+001
2.599614e+003;8.911585e+001
2.601543e+003;8.915818e+001
2.603471e+003;8.905249e+001
2.605400e+003;8.893581e+001
2.607328e+003;8.897535e+001
2.609257e+003;8.883353e+001
2.611185e+003;8.875378e+001
2.613114e+003;8.879633e+001
2.615042e+003;8.863276e+001
2.616971e+003;8.857249e+001
2.618899e+003;8.858786e+001
2.620828e+003;8.842117e+001
2.622756e+003;8.840649e+001
2.624685e+003;8.839053e+001
2.626613e+003;8.821302e+001
2.628542e+003;8.823249e+001
2.630470e+003;8.818819e+001
2.632399e+003;8.801495e+001
2.634327e+003;8.804723e+001
2.636256e+003;8.797517e+001
2.638184e+003;8.783880e+001
2.640113e+003;8.788257e+001
2.642041e+003;8.775976e+001
2.643970e+003;8.764457e+001
2.645898e+003;8.769541e+001
2.647827e+003;8.754863e+001
2.649755e+003;8.746351e+001
2.651684e+003;8.749850e+001
2.653612e+003;8.733923e+001
2.655541e+003;8.729704e+001
2.657469e+003;8.730399e+001
2.659398e+003;8.712860e+001
2.661326e+003;8.712740e+001
2.663255e+003;8.711215e+001
2.665183e+003;8.692760e+001
2.667112e+003;8.693961e+001
2.669040e+003;8.689575e+001
2.670969e+003;8.674044e+001
2.672897e+003;8.677644e+001
2.674826e+003;8.668876e+001
2.676754e+003;8.655096e+001
2.678683e+003;8.660098e+001
2.680611e+003;8.648112e+001
2.682540e+003;8.636326e+001
2.684468e+003;8.640897e+001
2.686397e+003;8.627232e+001
2.688325e+003;8.619856e+001
2.690254e+003;8.622070e+001
2.692182e+003;8.605242e+001
2.694111e+003;8.601649e+001
2.696039e+003;8.603340e+001
2.697968e+003;8.586046e+001
2.699896e+003;8.584380e+001
2.701825e+003;8.582484e+001
2.703753e+003;8.566272e+001
2.705682e+003;8.567799e+001
2.707610e+003;8.561915e+001
2.709539e+003;8.546495e+001
2.711467e+003;8.550490e+001
2.713396e+003;8.541923e+001
2.715324e+003;8.528032e+001
2.717253e+003;8.531800e+001
2.719181e+003;8.521087e+001
2.721110e+003;8.511048e+001
2.723038e+003;8.514196e+001
2.724967e+003;8.499748e+001
2.726895e+003;8.493121e+001
2.728823e+003;8.495576e+001
2.730752e+003;8.479379e+001
2.732681e+003;8.475440e+001
2.734609e+003;8.475860e+001
2.736538e+003;8.460382e+001
2.738466e+003;8.459574e+001
2.740395e+003;8.455547e+001
2.742323e+003;8.439576e+001
2.744251e+003;8.442084e+001
2.746180e+003;8.436315e+001
2.748109e+003;8.421515e+001
2.750037e+003;8.424406e+001
2.751966e+003;8.415134e+001
2.753894e+003;8.403514e+001
2.755823e+003;8.407033e+001
2.757751e+003;8.394270e+001
2.759679e+003;8.385258e+001
2.761608e+003;8.389585e+001
2.763537e+003;8.374944e+001
2.765465e+003;8.368063e+001
2.767394e+003;8.369810e+001
2.769322e+003;8.354916e+001
2.771250e+003;8.352453e+001
2.773179e+003;8.351203e+001
2.775107e+003;8.334465e+001
2.777036e+003;8.335438e+001
2.778965e+003;8.332125e+001
2.780893e+003;8.315396e+001
2.782822e+003;8.317545e+001
2.784750e+003;8.312234e+001
2.786678e+003;8.298441e+001
2.788607e+003;8.301224e+001
2.790535e+003;8.290886e+001
2.792464e+003;8.279778e+001
2.794393e+003;8.284654e+001
2.796321e+003;8.272131e+001
2.798250e+003;8.262357e+001
2.800178e+003;8.265772e+001
2.802106e+003;8.252200e+001
2.804035e+003;8.246700e+001
2.805963e+003;8.247595e+001
2.807892e+003;8.231144e+001
2.809821e+003;8.229080e+001
2.811749e+003;8.229411e+001
2.813677e+003;8.212273e+001
2.815606e+003;8.211127e+001
2.817534e+003;8.208519e+001
2.819463e+003;8.194744e+001
2.821391e+003;8.196062e+001
2.823320e+003;8.188544e+001
2.825249e+003;8.175113e+001
2.827177e+003;8.179201e+001
2.829105e+003;8.169967e+001
2.831034e+003;8.157999e+001
2.832962e+003;8.160925e+001
2.834891e+003;8.149849e+001
2.836819e+003;8.141673e+001
2.838748e+003;8.142828e+001
2.840677e+003;8.128579e+001
2.842605e+003;8.124599e+001
2.844533e+003;8.126118e+001
2.846462e+003;8.110471e+001
2.848390e+003;8.106545e+001
2.850319e+003;8.104832e+001
2.852247e+003;8.091014e+001
2.854176e+003;8.091337e+001
2.856104e+003;8.085819e+001
2.858033e+003;8.072153e+001
2.859961e+003;8.075492e+001
2.861890e+003;8.068380e+001
2.863818e+003;8.055035e+001
2.865747e+003;8.057100e+001
2.867675e+003;8.048481e+001
2.869604e+003;8.040282e+001
2.871532e+003;8.041879e+001
2.873461e+003;8.028172e+001
2.875389e+003;8.021899e+001
2.877318e+003;8.024790e+001
2.879246e+003;8.010151e+001
2.881175e+003;8.005078e+001
2.883103e+003;8.005151e+001
2.885032e+003;7.991708e+001
2.886960e+003;7.990704e+001
2.888889e+003;7.986706e+001
2.890817e+003;7.971450e+001
2.892746e+003;7.973678e+001
2.894674e+003;7.968938e+001
2.896603e+003;7.954091e+001
2.898531e+003;7.955724e+001
2.900460e+003;7.949100e+001
2.902388e+003;7.938142e+001
2.904317e+003;7.940688e+001
2.906245e+003;7.928951e+001
2.908174e+003;7.919744e+001
2.910102e+003;7.924011e+001
2.912031e+003;7.911485e+001
2.913959e+003;7.903117e+001
2.915888e+003;7.904987e+001
2.917816e+003;7.892090e+001
2.919745e+003;7.888201e+001
2.921673e+003;7.887123e+001
2.923602e+003;7.871702e+001
2.925530e+003;7.871375e+001
2.927459e+003;7.870775e+001
2.929387e+003;7.855598e+001
2.931316e+003;7.855093e+001
2.933244e+003;7.850863e+001
2.935173e+003;7.839008e+001
2.937101e+003;7.840581e+001
2.939030e+003;7.832454e+001
2.940958e+003;7.821738e+001
2.942887e+003;7.825513e+001
2.944815e+003;7.816022e+001
2.946744e+003;7.805792e+001
2.948672e+003;7.807049e+001
2.950601e+003;7.797053e+001
2.952529e+003;7.791747e+001
2.954458e+003;7.791107e+001
2.956386e+003;7.776902e+001
2.958315e+003;7.774320e+001
2.960243e+003;7.774417e+001
2.962172e+003;7.760577e+001
2.964100e+003;7.758096e+001
2.966029e+003;7.755496e+001
2.967957e+003;7.744283e+001
2.969886e+003;7.744604e+001
2.971814e+003;7.737057e+001
2.973743e+003;7.725702e+001
2.975671e+003;7.729121e+001
2.977600e+003;7.720963e+001
2.979528e+003;7.710131e+001
2.981457e+003;7.711456e+001
2.983385e+003;7.701621e+001
2.985314e+003;7.695597e+001
2.987242e+003;7.696325e+001
2.989171e+003;7.683052e+001
2.991099e+003;7.679372e+001
2.993028e+003;7.680843e+001
2.994956e+003;7.666279e+001
2.996885e+003;7.662724e+001
2.998813e+003;7.661783e+001
3.000742e+003;7.649941e+001
3.002670e+003;7.649680e+001
3.004599e+003;7.643764e+001
3.006527e+003;7.630341e+001
3.008456e+003;7.633746e+001
3.010384e+003;7.628323e+001
3.012313e+003;7.615706e+001
3.014241e+003;7.617062e+001
3.016170e+003;7.609591e+001
3.018098e+003;7.600836e+001
3.020027e+003;7.602392e+001
3.021955e+003;7.590475e+001
3.023884e+003;7.584121e+001
3.025812e+003;7.587401e+001
3.027741e+003;7.575223e+001
3.029669e+003;7.568396e+001
3.031598e+003;7.569119e+001
3.033526e+003;7.558323e+001
3.035455e+003;7.555851e+001
3.037383e+003;7.553052e+001
3.039312e+003;7.540424e+001
3.041240e+003;7.540505e+001
3.043169e+003;7.537447e+001
3.045097e+003;7.524520e+001
3.047026e+003;7.523905e+001
3.048954e+003;7.519325e+001
3.050883e+003;7.510696e+001
3.052811e+003;7.510835e+001
3.054740e+003;7.501371e+001
3.056668e+003;7.493345e+001
3.058597e+003;7.495808e+001
3.060525e+003;7.486169e+001
3.062454e+003;7.478629e+001
3.064382e+003;7.478058e+001
3.066311e+003;7.469048e+001
3.068239e+003;7.465833e+001
3.070167e+003;7.462907e+001
3.072096e+003;7.450903e+001
3.074025e+003;7.450511e+001
3.075953e+003;7.448248e+001
3.077882e+003;7.436723e+001
3.079810e+003;7.435307e+001
3.081739e+003;7.430309e+001
3.083667e+003;7.421468e+001
3.085595e+003;7.422116e+001
3.087524e+003;7.413496e+001
3.089453e+003;7.405075e+001
3.091381e+003;7.407555e+001
3.093310e+003;7.398690e+001
3.095238e+003;7.390604e+001
3.097167e+003;7.391135e+001
3.099095e+003;7.381743e+001
3.101023e+003;7.378096e+001
3.102952e+003;7.377055e+001
3.104881e+003;7.364499e+001
3.106809e+003;7.362497e+001
3.108738e+003;7.362275e+001
3.110666e+003;7.349854e+001
3.112594e+003;7.347862e+001
3.114523e+003;7.345148e+001
3.116451e+003;7.335612e+001
3.118380e+003;7.335691e+001
3.120309e+003;7.329210e+001
3.122237e+003;7.318320e+001
3.124166e+003;7.320913e+001
3.126094e+003;7.315102e+001
3.128022e+003;7.305363e+001
3.129951e+003;7.305340e+001
3.131879e+003;7.297987e+001
3.133808e+003;7.292482e+001
3.135737e+003;7.292651e+001
3.137665e+003;7.281670e+001
3.139594e+003;7.276773e+001
3.141522e+003;7.277789e+001
3.143450e+003;7.268121e+001
3.145379e+003;7.263418e+001
3.147307e+003;7.261310e+001
3.149236e+003;7.252290e+001
3.151165e+003;7.251079e+001
3.153093e+003;7.246413e+001
3.155021e+003;7.236354e+001
3.156950e+003;7.236771e+001
3.158878e+003;7.232889e+001
3.160807e+003;7.223714e+001
3.162735e+003;7.222223e+001
3.164664e+003;7.216019e+001
3.166593e+003;7.210812e+001
3.168521e+003;7.209936e+001
3.170449e+003;7.200671e+001
3.172378e+003;7.195689e+001
3.174306e+003;7.195782e+001
3.176235e+003;7.186272e+001
3.178163e+003;7.182261e+001
3.180092e+003;7.179785e+001
3.182021e+003;7.171662e+001
3.183949e+003;7.170633e+001
3.185877e+003;7.166160e+001
3.187806e+003;7.155965e+001
3.189734e+003;7.156657e+001
3.191663e+003;7.152651e+001
3.193591e+003;7.143746e+001
3.195520e+003;7.143074e+001
3.197448e+003;7.136619e+001
3.199377e+003;7.129886e+001
3.201305e+003;7.130999e+001
3.203234e+003;7.122155e+001
3.205162e+003;7.115549e+001
3.207091e+003;7.117097e+001
3.209019e+003;7.108935e+001
3.210948e+003;7.103090e+001
3.212876e+003;7.101910e+001
3.214805e+003;7.092709e+001
3.216733e+003;7.090586e+001
3.218662e+003;7.089212e+001
3.220590e+003;7.078747e+001
3.222519e+003;7.076949e+001
3.224447e+003;7.075646e+001
3.226376e+003;7.066512e+001
3.228304e+003;7.064944e+001
3.230233e+003;7.060844e+001
3.232161e+003;7.053507e+001
3.234090e+003;7.053088e+001
3.236018e+003;7.047098e+001
3.237947e+003;7.039289e+001
3.239875e+003;7.040179e+001
3.241804e+003;7.034150e+001
3.243732e+003;7.027380e+001
3.245661e+003;7.025738e+001
3.247589e+003;7.019164e+001
3.249518e+003;7.015630e+001
3.251446e+003;7.014072e+001
3.253375e+003;7.004936e+001
3.255303e+003;7.001709e+001
3.257232e+003;7.000352e+001
3.259160e+003;6.993143e+001
3.261089e+003;6.989954e+001
3.263017e+003;6.985699e+001
3.264946e+003;6.979687e+001
3.266874e+003;6.979451e+001
3.268803e+003;6.973473e+001
3.270731e+003;6.966532e+001
3.272660e+003;6.965989e+001
3.274588e+003;6.960552e+001
3.276517e+003;6.954781e+001
3.278445e+003;6.953009e+001
3.280374e+003;6.946102e+001
3.282302e+003;6.943297e+001
3.284231e+003;6.941861e+001
3.286159e+003;6.933112e+001
3.288088e+003;6.929643e+001
3.290016e+003;6.928574e+001
3.291945e+003;6.921413e+001
3.293873e+003;6.919537e+001
3.295802e+003;6.915518e+001
3.297730e+003;6.907882e+001
3.299659e+003;6.907782e+001
3.301587e+003;6.903481e+001
3.303516e+003;6.894604e+001
3.305444e+003;6.894764e+001
3.307373e+003;6.890731e+001
3.309301e+003;6.884400e+001
3.311230e+003;6.883205e+001
3.313158e+003;6.876925e+001
3.315087e+003;6.872134e+001
3.317015e+003;6.872495e+001
3.318944e+003;6.864857e+001
3.320872e+003;6.859466e+001
3.322801e+003;6.858689e+001
3.324729e+003;6.852887e+001
3.326658e+003;6.848743e+001
3.328586e+003;6.846138e+001
3.330515e+003;6.839621e+001
3.332443e+003;6.837992e+001
3.334372e+003;6.835052e+001
3.336300e+003;6.827511e+001
3.338229e+003;6.824868e+001
3.340157e+003;6.823296e+001
3.342086e+003;6.818241e+001
3.344014e+003;6.814768e+001
3.345943e+003;6.809285e+001
3.347871e+003;6.805533e+001
3.349800e+003;6.804540e+001
3.351728e+003;6.798318e+001
3.353657e+003;6.792464e+001
3.355585e+003;6.791228e+001
3.357514e+003;6.787203e+001
3.359442e+003;6.784002e+001
3.361371e+003;6.779645e+001
3.363299e+003;6.773531e+001
3.365228e+003;6.772829e+001
3.367156e+003;6.770387e+001
3.369085e+003;6.762283e+001
3.371013e+003;6.759694e+001
3.372942e+003;6.757429e+001
3.374870e+003;6.753298e+001
3.376799e+003;6.750351e+001
3.378727e+003;6.744444e+001
3.380656e+003;6.740820e+001
3.382584e+003;6.741209e+001
3.384513e+003;6.734259e+001
3.386441e+003;6.728506e+001
3.388370e+003;6.728024e+001
3.390298e+003;6.723763e+001
3.392227e+003;6.719380e+001
3.394155e+003;6.716335e+001
3.396083e+003;6.709947e+001
3.398012e+003;6.709470e+001
3.399941e+003;6.708083e+001
3.401869e+003;6.699689e+001
3.403798e+003;6.696366e+001
3.405726e+003;6.696323e+001
3.407655e+003;6.691294e+001
3.409583e+003;6.687512e+001
3.411511e+003;6.682939e+001
3.413440e+003;6.678855e+001
3.415369e+003;6.678513e+001
3.417297e+003;6.673830e+001
3.419226e+003;6.666521e+001
3.421154e+003;6.665915e+001
3.423083e+003;6.663865e+001
3.425011e+003;6.659093e+001
3.426939e+003;6.655139e+001
3.428868e+003;6.650898e+001
3.430797e+003;6.649212e+001
3.432725e+003;6.648272e+001
3.434654e+003;6.641473e+001
3.436582e+003;6.636631e+001
3.438510e+003;6.636050e+001
3.440439e+003;6.633736e+001
3.442367e+003;6.628484e+001
3.444296e+003;6.623215e+001
3.446225e+003;6.620287e+001
3.448153e+003;6.620391e+001
3.450082e+003;6.615627e+001
3.452010e+003;6.609553e+001
3.453938e+003;6.607697e+001
3.455867e+003;6.606342e+001
3.457795e+003;6.602999e+001
3.459724e+003;6.598166e+001
3.461653e+003;6.593191e+001
3.463581e+003;6.593232e+001
3.465510e+003;6.591686e+001
3.467438e+003;6.585051e+001
3.469366e+003;6.580695e+001
3.471295e+003;6.580119e+001
3.473223e+003;6.577166e+001
3.475152e+003;6.573471e+001
3.477081e+003;6.568120e+001
3.479009e+003;6.564507e+001
3.480938e+003;6.565205e+001
3.482866e+003;6.561811e+001
3.484794e+003;6.554237e+001
3.486723e+003;6.552117e+001
3.488651e+003;6.551406e+001
3.490580e+003;6.548061e+001
3.492509e+003;6.543310e+001
3.494437e+003;6.538640e+001
3.496365e+003;6.536790e+001
3.498294e+003;6.536331e+001
3.500222e+003;6.530275e+001
3.502151e+003;6.524870e+001
3.504079e+003;6.524937e+001
3.506008e+003;6.523798e+001
3.507937e+003;6.518962e+001
3.509865e+003;6.514124e+001
3.511793e+003;6.510478e+001
3.513722e+003;6.510118e+001
3.515650e+003;6.507703e+001
3.517579e+003;6.501064e+001
3.519507e+003;6.497390e+001
3.521436e+003;6.497964e+001
3.523365e+003;6.495682e+001
3.525293e+003;6.490480e+001
3.527221e+003;6.485780e+001
3.529150e+003;6.484608e+001
3.531078e+003;6.483598e+001
3.533007e+003;6.479453e+001
3.534935e+003;6.473441e+001
3.536864e+003;6.471684e+001
3.538792e+003;6.471587e+001
3.540721e+003;6.468105e+001
3.542649e+003;6.462251e+001
3.544578e+003;6.460082e+001
3.546506e+003;6.460048e+001
3.548435e+003;6.457335e+001
3.550363e+003;6.451888e+001
3.552292e+003;6.448264e+001
3.554220e+003;6.447364e+001
3.556149e+003;6.446577e+001
3.558077e+003;6.442080e+001
3.560006e+003;6.436253e+001
3.561934e+003;6.434562e+001
3.563863e+003;6.435004e+001
3.565791e+003;6.429994e+001
3.567720e+003;6.424370e+001
3.569648e+003;6.423210e+001
3.571577e+003;6.423112e+001
3.573505e+003;6.420123e+001
3.575434e+003;6.414957e+001
3.577362e+003;6.410941e+001
3.579291e+003;6.411871e+001
3.581219e+003;6.410583e+001
3.583148e+003;6.404630e+001
3.585076e+003;6.399892e+001
3.587005e+003;6.399977e+001
3.588933e+003;6.399102e+001
3.590862e+003;6.395200e+001
3.592790e+003;6.390385e+001
3.594719e+003;6.388818e+001
3.596647e+003;6.388859e+001
3.598576e+003;6.386503e+001
3.600504e+003;6.380283e+001
3.602433e+003;6.377390e+001
3.604361e+003;6.378187e+001
3.606290e+003;6.375761e+001
3.608218e+003;6.369054e+001
3.610147e+003;6.366213e+001
3.612075e+003;6.366224e+001
3.614004e+003;6.365654e+001
3.615932e+003;6.361284e+001
3.617861e+003;6.355876e+001
3.619789e+003;6.355298e+001
3.621718e+003;6.357089e+001
3.623646e+003;6.352657e+001
3.625575e+003;6.346989e+001
3.627503e+003;6.345013e+001
3.629432e+003;6.345139e+001
3.631360e+003;6.343135e+001
3.633289e+003;6.338330e+001
3.635217e+003;6.334868e+001
3.637146e+003;6.336235e+001
3.639074e+003;6.335093e+001
3.641003e+003;6.329205e+001
3.642931e+003;6.325337e+001
3.644860e+003;6.326234e+001
3.646788e+003;6.325330e+001
3.648717e+003;6.320423e+001
3.650645e+003;6.315079e+001
3.652574e+003;6.315227e+001
3.654502e+003;6.315867e+001
3.656431e+003;6.312200e+001
3.658359e+003;6.307098e+001
3.660288e+003;6.306037e+001
3.662216e+003;6.306991e+001
3.664145e+003;6.305347e+001
3.666073e+003;6.299079e+001
3.668002e+003;6.294913e+001
3.669930e+003;6.295820e+001
3.671859e+003;6.296028e+001
3.673787e+003;6.289804e+001
3.675716e+003;6.285849e+001
3.677644e+003;6.286694e+001
3.679573e+003;6.287524e+001
3.681501e+003;6.284566e+001
3.683430e+003;6.278527e+001
3.685358e+003;6.277070e+001
3.687287e+003;6.278980e+001
3.689215e+003;6.275318e+001
3.691144e+003;6.270088e+001
3.693072e+003;6.269415e+001
3.695001e+003;6.270294e+001
3.696929e+003;6.268756e+001
3.698858e+003;6.264212e+001
3.700786e+003;6.260002e+001
3.702715e+003;6.261676e+001
3.704643e+003;6.262366e+001
3.706572e+003;6.257069e+001
3.708500e+003;6.251712e+001
3.710429e+003;6.251757e+001
3.712357e+003;6.252567e+001
3.714286e+003;6.250576e+001
3.716214e+003;6.244083e+001
3.718143e+003;6.242933e+001
3.720071e+003;6.245993e+001
3.722000e+003;6.243179e+001
3.723928e+003;6.236875e+001
3.725857e+003;6.235324e+001
3.727785e+003;6.236232e+001
3.729714e+003;6.236618e+001
3.731642e+003;6.231129e+001
3.733571e+003;6.225471e+001
3.735499e+003;6.226856e+001
3.737427e+003;6.229801e+001
3.739356e+003;6.225451e+001
3.741285e+003;6.220569e+001
3.743213e+003;6.218429e+001
3.745142e+003;6.218677e+001
3.747070e+003;6.217995e+001
3.748999e+003;6.211227e+001
3.750927e+003;6.207914e+001
3.752855e+003;6.211725e+001
3.754784e+003;6.211054e+001
3.756713e+003;6.205915e+001
3.758641e+003;6.203825e+001
3.760570e+003;6.204250e+001
3.762498e+003;6.205078e+001
3.764427e+003;6.202140e+001
3.766355e+003;6.196103e+001
3.768283e+003;6.196702e+001
3.770212e+003;6.198558e+001
3.772141e+003;6.194062e+001
3.774069e+003;6.189525e+001
3.775998e+003;6.190242e+001
3.777926e+003;6.191089e+001
3.779854e+003;6.189895e+001
3.781783e+003;6.183925e+001
3.783711e+003;6.181034e+001
3.785640e+003;6.184366e+001
3.787569e+003;6.184295e+001
3.789497e+003;6.178394e+001
3.791426e+003;6.175483e+001
3.793354e+003;6.175797e+001
3.795282e+003;6.177285e+001
3.797211e+003;6.173983e+001
3.799139e+003;6.168121e+001
3.801068e+003;6.168082e+001
3.802997e+003;6.171304e+001
3.804925e+003;6.167643e+001
3.806854e+003;6.162651e+001
3.808782e+003;6.161907e+001
3.810710e+003;6.164134e+001
3.812639e+003;6.164569e+001
3.814567e+003;6.157629e+001
3.816496e+003;6.153312e+001
3.818425e+003;6.158720e+001
3.820353e+003;6.158297e+001
3.822281e+003;6.153421e+001
3.824210e+003;6.150814e+001
3.826138e+003;6.150574e+001
3.828067e+003;6.152704e+001
3.829995e+003;6.151613e+001
3.831924e+003;6.144105e+001
3.833853e+003;6.144105e+001
3.835781e+003;6.147382e+001
3.837709e+003;6.143557e+001
3.839638e+003;6.138768e+001
3.841566e+003;6.138496e+001
3.843495e+003;6.139359e+001
3.845423e+003;6.140620e+001
3.847352e+003;6.136135e+001
3.849281e+003;6.131614e+001
3.851209e+003;6.133625e+001
3.853137e+003;6.133637e+001
3.855066e+003;6.129733e+001
3.856994e+003;6.128289e+001
3.858923e+003;6.128904e+001
3.860851e+003;6.130602e+001
3.862780e+003;6.128809e+001
3.864708e+003;6.122484e+001
3.866637e+003;6.121936e+001
3.868565e+003;6.125788e+001
3.870494e+003;6.123589e+001
3.872422e+003;6.119636e+001
3.874351e+003;6.117363e+001
3.876279e+003;6.119233e+001
3.878208e+003;6.120593e+001
3.880136e+003;6.115407e+001
3.882065e+003;6.110932e+001
3.883993e+003;6.114495e+001
3.885922e+003;6.116220e+001
3.887850e+003;6.113760e+001
3.889779e+003;6.109270e+001
3.891707e+003;6.107347e+001
3.893636e+003;6.110958e+001
3.895564e+003;6.111671e+001
3.897493e+003;6.103653e+001
3.899421e+003;6.102643e+001
3.901350e+003;6.107011e+001
3.903278e+003;6.105228e+001
3.905207e+003;6.101302e+001
3.907135e+003;6.099099e+001
3.909064e+003;6.099119e+001
3.910992e+003;6.103085e+001
3.912921e+003;6.099805e+001
3.914849e+003;6.092979e+001
3.916778e+003;6.095804e+001
3.918706e+003;6.099073e+001
3.920635e+003;6.094906e+001
3.922563e+003;6.091962e+001
3.924492e+003;6.090189e+001
3.926420e+003;6.093009e+001
3.928349e+003;6.094477e+001
3.930277e+003;6.088050e+001
3.932206e+003;6.085574e+001
3.934134e+003;6.090484e+001
3.936063e+003;6.089342e+001
3.937991e+003;6.085262e+001
3.939920e+003;6.083136e+001
3.941848e+003;6.083816e+001
3.943777e+003;6.086683e+001
3.945705e+003;6.084373e+001
3.947634e+003;6.077231e+001
3.949562e+003;6.079445e+001
3.951491e+003;6.083630e+001
3.953419e+003;6.081520e+001
3.955348e+003;6.076582e+001
3.957276e+003;6.074789e+001
3.959205e+003;6.078346e+001
3.961133e+003;6.080402e+001
3.963062e+003;6.073659e+001
3.964990e+003;6.071534e+001
3.966919e+003;6.075413e+001
3.968847e+003;6.075901e+001
3.970776e+003;6.073604e+001
3.972704e+003;6.070171e+001
3.974633e+003;6.069231e+001
3.976561e+003;6.074462e+001
3.978490e+003;6.072507e+001
3.980418e+003;6.065182e+001
3.982347e+003;6.067534e+001
3.984275e+003;6.071252e+001
3.986204e+003;6.068147e+001
3.988132e+003;6.065858e+001
3.990061e+003;6.063111e+001
3.991989e+003;6.066210e+001
3.993918e+003;6.070385e+001
3.995846e+003;6.063818e+001
3.997775e+003;6.059395e+001
3.999703e+003;6.065893e+001
