3.991989e+002;1.142993e+000
4.011274e+002;1.211257e+000
4.030559e+002;1.292508e+000
4.049844e+002;1.377729e+000
4.069129e+002;1.453696e+000
4.088414e+002;1.527774e+000
4.107699e+002;1.607880e+000
4.126984e+002;1.677062e+000
4.146269e+002;1.759576e+000
4.165554e+002;1.857493e+000
4.184839e+002;1.923525e+000
4.204124e+002;1.983348e+000
4.223409e+002;2.060899e+000
4.242694e+002;2.135211e+000
4.261979e+002;2.187965e+000
4.281264e+002;2.248949e+000
4.300549e+002;2.318011e+000
4.319834e+002;2.367977e+000
4.339119e+002;2.407239e+000
4.358404e+002;2.441121e+000
4.377689e+002;2.485281e+000
4.396974e+002;2.525332e+000
4.416259e+002;2.547721e+000
4.435544e+002;2.574210e+000
4.454829e+002;2.585753e+000
4.474114e+002;2.594317e+000
4.493399e+002;2.615304e+000
4.512684e+002;2.629818e+000
4.531969e+002;2.636878e+000
4.551254e+002;2.648115e+000
4.570539e+002;2.671751e+000
4.589824e+002;2.705516e+000
4.609109e+002;2.737689e+000
4.628394e+002;2.779156e+000
4.647679e+002;2.838382e+000
4.666964e+002;2.915991e+000
4.686248e+002;3.015340e+000
4.705533e+002;3.120754e+000
4.724818e+002;3.236424e+000
4.744103e+002;3.355574e+000
4.763388e+002;3.471567e+000
4.782673e+002;3.593713e+000
4.801958e+002;3.718791e+000
4.821243e+002;3.829562e+000
4.840528e+002;3.929928e+000
4.859813e+002;4.024641e+000
4.879098e+002;4.112371e+000
4.898383e+002;4.196033e+000
4.917668e+002;4.277803e+000
4.936953e+002;4.353418e+000
4.956238e+002;4.426079e+000
4.975523e+002;4.492627e+000
4.994808e+002;4.554363e+000
5.014093e+002;4.607474e+000
5.033378e+002;4.661408e+000
5.052663e+002;4.701095e+000
5.071948e+002;4.729944e+000
5.091233e+002;4.747797e+000
5.110518e+002;4.745983e+000
5.129803e+002;4.750703e+000
5.149088e+002;4.805421e+000
5.168373e+002;4.902709e+000
5.187657e+002;4.989753e+000
5.206943e+002;5.049803e+000
5.226227e+002;5.104032e+000
5.245513e+002;5.153464e+000
5.264797e+002;5.198593e+000
5.284083e+002;5.240937e+000
5.303367e+002;5.286623e+000
5.322653e+002;5.327080e+000
5.341937e+002;5.365927e+000
5.361223e+002;5.404201e+000
5.380507e+002;5.440289e+000
5.399792e+002;5.474860e+000
5.419077e+002;5.506065e+000
5.438362e+002;5.536278e+000
5.457647e+002;5.566941e+000
5.476932e+002;5.592793e+000
5.496217e+002;5.619761e+000
5.515502e+002;5.647859e+000
5.534787e+002;5.676373e+000
5.554072e+002;5.708646e+000
5.573357e+002;5.745994e+000
5.592642e+002;5.779654e+000
5.611927e+002;5.810983e+000
5.631212e+002;5.841686e+000
5.650497e+002;5.876934e+000
5.669782e+002;5.926845e+000
5.689067e+002;6.012001e+000
5.708352e+002;6.121305e+000
5.727637e+002;6.220748e+000
5.746922e+002;6.302364e+000
5.766207e+002;6.369803e+000
5.785492e+002;6.424675e+000
5.804777e+002;6.470678e+000
5.824062e+002;6.509416e+000
5.843347e+002;6.538017e+000
5.862632e+002;6.553727e+000
5.881917e+002;6.555205e+000
5.901202e+002;6.532609e+000
5.920486e+002;6.482872e+000
5.939772e+002;6.402421e+000
5.959056e+002;6.295156e+000
5.978342e+002;6.158990e+000
5.997626e+002;5.963489e+000
6.016912e+002;5.721704e+000
6.036196e+002;5.540575e+000
6.055482e+002;5.413876e+000
6.074766e+002;5.291529e+000
6.094052e+002;5.203723e+000
6.113336e+002;5.246663e+000
6.132621e+002;5.400251e+000
6.151906e+002;5.518150e+000
6.171191e+002;5.584899e+000
6.190476e+002;5.644540e+000
6.209761e+002;5.747070e+000
6.229046e+002;6.030488e+000
6.248331e+002;6.579728e+000
6.267616e+002;7.290966e+000
6.286901e+002;8.021751e+000
6.306186e+002;8.563654e+000
6.325471e+002;8.850027e+000
6.344756e+002;8.989479e+000
6.364041e+002;9.079143e+000
6.383326e+002;9.164940e+000
6.402611e+002;9.251455e+000
6.421896e+002;9.337907e+000
6.441181e+002;9.417936e+000
6.460466e+002;9.484252e+000
6.479751e+002;9.546375e+000
6.499036e+002;9.620835e+000
6.518321e+002;9.689902e+000
6.537606e+002;9.751221e+000
6.556891e+002;9.810982e+000
6.576176e+002;9.870307e+000
6.595461e+002;9.924400e+000
6.614745e+002;9.974599e+000
6.634031e+002;1.002705e+001
6.653315e+002;1.007892e+001
6.672601e+002;1.012319e+001
6.691885e+002;1.017783e+001
6.711171e+002;1.023527e+001
6.730455e+002;1.028537e+001
6.749741e+002;1.033504e+001
6.769025e+002;1.038582e+001
6.788311e+002;1.043707e+001
6.807595e+002;1.048228e+001
6.826880e+002;1.052345e+001
6.846165e+002;1.056194e+001
6.865450e+002;1.059894e+001
6.884735e+002;1.064061e+001
6.904020e+002;1.068958e+001
6.923305e+002;1.074494e+001
6.942590e+002;1.080627e+001
6.961875e+002;1.087381e+001
6.981160e+002;1.093946e+001
7.000445e+002;1.098562e+001
7.019730e+002;1.101295e+001
7.039015e+002;1.102831e+001
7.058300e+002;1.103002e+001
7.077585e+002;1.101550e+001
7.096870e+002;1.097830e+001
7.116155e+002;1.090784e+001
7.135440e+002;1.080006e+001
7.154725e+002;1.068080e+001
7.174010e+002;1.059165e+001
7.193295e+002;1.052951e+001
7.212580e+002;1.047396e+001
7.231865e+002;1.041927e+001
7.251150e+002;1.036480e+001
7.270435e+002;1.031162e+001
7.289720e+002;1.026099e+001
7.309005e+002;1.021731e+001
7.328290e+002;1.017834e+001
7.347574e+002;1.014130e+001
7.366860e+002;1.011211e+001
7.386144e+002;1.010431e+001
7.405430e+002;1.014536e+001
7.424714e+002;1.023734e+001
7.444000e+002;1.033615e+001
7.463284e+002;1.041963e+001
7.482570e+002;1.049184e+001
7.501854e+002;1.055326e+001
7.521140e+002;1.060494e+001
7.540424e+002;1.065425e+001
7.559709e+002;1.070031e+001
7.578994e+002;1.074502e+001
7.598279e+002;1.078767e+001
7.617564e+002;1.082925e+001
7.636849e+002;1.086513e+001
7.656134e+002;1.089321e+001
7.675419e+002;1.091292e+001
7.694704e+002;1.092815e+001
7.713989e+002;1.093640e+001
7.733274e+002;1.093725e+001
7.752559e+002;1.093038e+001
7.771844e+002;1.091679e+001
7.791129e+002;1.089790e+001
7.810414e+002;1.087699e+001
7.829699e+002;1.085692e+001
7.848984e+002;1.083777e+001
7.868269e+002;1.081711e+001
7.887554e+002;1.079647e+001
7.906839e+002;1.077633e+001
7.926124e+002;1.076473e+001
7.945409e+002;1.077318e+001
7.964694e+002;1.081155e+001
7.983979e+002;1.087593e+001
8.003264e+002;1.091743e+001
8.022549e+002;1.090409e+001
8.041833e+002;1.086907e+001
8.061119e+002;1.083915e+001
8.080403e+002;1.082378e+001
8.099689e+002;1.082131e+001
8.118973e+002;1.082936e+001
8.138259e+002;1.083982e+001
8.157543e+002;1.085435e+001
8.176829e+002;1.088320e+001
8.196113e+002;1.093190e+001
8.215399e+002;1.099778e+001
8.234683e+002;1.107987e+001
8.253969e+002;1.117874e+001
8.273253e+002;1.129121e+001
8.292538e+002;1.141249e+001
8.311823e+002;1.152801e+001
8.331108e+002;1.162715e+001
8.350393e+002;1.171044e+001
8.369678e+002;1.178006e+001
8.388963e+002;1.183576e+001
8.408248e+002;1.187558e+001
8.427533e+002;1.190493e+001
8.446818e+002;1.193151e+001
8.466103e+002;1.196218e+001
8.485388e+002;1.199357e+001
8.504673e+002;1.202369e+001
8.523958e+002;1.205194e+001
8.543243e+002;1.207395e+001
8.562528e+002;1.208663e+001
8.581813e+002;1.208963e+001
8.601098e+002;1.208139e+001
8.620383e+002;1.207242e+001
8.639668e+002;1.207883e+001
8.658953e+002;1.210109e+001
8.678238e+002;1.212962e+001
8.697523e+002;1.216043e+001
8.716808e+002;1.218981e+001
8.736093e+002;1.221805e+001
8.755378e+002;1.224887e+001
8.774662e+002;1.228086e+001
8.793948e+002;1.231283e+001
8.813232e+002;1.234568e+001
8.832518e+002;1.237780e+001
8.851802e+002;1.240916e+001
8.871088e+002;1.244343e+001
8.890372e+002;1.248326e+001
8.909658e+002;1.252656e+001
8.928942e+002;1.257093e+001
8.948227e+002;1.261538e+001
8.967512e+002;1.266326e+001
8.986797e+002;1.271397e+001
9.006082e+002;1.276970e+001
9.025367e+002;1.283257e+001
9.044652e+002;1.289928e+001
9.063937e+002;1.297014e+001
9.083222e+002;1.304635e+001
9.102507e+002;1.312674e+001
9.121792e+002;1.321770e+001
9.141077e+002;1.331599e+001
9.160362e+002;1.340773e+001
9.179647e+002;1.349593e+001
9.198932e+002;1.358025e+001
9.218217e+002;1.365897e+001
9.237502e+002;1.373871e+001
9.256786e+002;1.381820e+001
9.276072e+002;1.389923e+001
9.295356e+002;1.398206e+001
9.314642e+002;1.406083e+001
9.333926e+002;1.413312e+001
9.353212e+002;1.420168e+001
9.372496e+002;1.426556e+001
9.391782e+002;1.432521e+001
9.411066e+002;1.438332e+001
9.430352e+002;1.443425e+001
9.449636e+002;1.447731e+001
9.468922e+002;1.451323e+001
9.488206e+002;1.454257e+001
9.507491e+002;1.457052e+001
9.526776e+002;1.460104e+001
9.546061e+002;1.463035e+001
9.565346e+002;1.465944e+001
9.584631e+002;1.468765e+001
9.603916e+002;1.471159e+001
9.623201e+002;1.473739e+001
9.642486e+002;1.477431e+001
9.661771e+002;1.482210e+001
9.681056e+002;1.487768e+001
9.700341e+002;1.493252e+001
9.719626e+002;1.498374e+001
9.738911e+002;1.503353e+001
9.758196e+002;1.508610e+001
9.777481e+002;1.514023e+001
9.796766e+002;1.519011e+001
9.816051e+002;1.523390e+001
9.835336e+002;1.527223e+001
9.854621e+002;1.530444e+001
9.873906e+002;1.532729e+001
9.893191e+002;1.534362e+001
9.912476e+002;1.535510e+001
9.931761e+002;1.536067e+001
9.951046e+002;1.535966e+001
9.970331e+002;1.534772e+001
9.989615e+002;1.531759e+001
1.000890e+003;1.526773e+001
1.002819e+003;1.519651e+001
1.004747e+003;1.510206e+001
1.006676e+003;1.498340e+001
1.008604e+003;1.484017e+001
1.010533e+003;1.466793e+001
1.012461e+003;1.447003e+001
1.014390e+003;1.425392e+001
1.016318e+003;1.402494e+001
1.018247e+003;1.378621e+001
1.020175e+003;1.353817e+001
1.022104e+003;1.328151e+001
1.024032e+003;1.301538e+001
1.025961e+003;1.274173e+001
1.027889e+003;1.246466e+001
1.029818e+003;1.218615e+001
1.031746e+003;1.190729e+001
1.033675e+003;1.163025e+001
1.035603e+003;1.135625e+001
1.037531e+003;1.108346e+001
1.039460e+003;1.081515e+001
1.041389e+003;1.055448e+001
1.043317e+003;1.030336e+001
1.045245e+003;1.006405e+001
1.047174e+003;9.835234e+000
1.049103e+003;9.615739e+000
1.051031e+003;9.408478e+000
1.052959e+003;9.212733e+000
1.054888e+003;9.028678e+000
1.056817e+003;8.858800e+000
1.058745e+003;8.701315e+000
1.060673e+003;8.556165e+000
1.062602e+003;8.423141e+000
1.064531e+003;8.301942e+000
1.066459e+003;8.193036e+000
1.068387e+003;8.095772e+000
1.070316e+003;8.008863e+000
1.072245e+003;7.932845e+000
1.074173e+003;7.869059e+000
1.076101e+003;7.821321e+000
1.078030e+003;7.788497e+000
1.079958e+003;7.770385e+000
1.081887e+003;7.777049e+000
1.083815e+003;7.804264e+000
1.085744e+003;7.837594e+000
1.087672e+003;7.875419e+000
1.089601e+003;7.923899e+000
1.091529e+003;7.985982e+000
1.093458e+003;8.066465e+000
1.095386e+003;8.172282e+000
1.097315e+003;8.309154e+000
1.099243e+003;8.482738e+000
1.101172e+003;8.698907e+000
1.103100e+003;8.960161e+000
1.105029e+003;9.269040e+000
1.106957e+003;9.626011e+000
1.108886e+003;1.002584e+001
1.110814e+003;1.046288e+001
1.112743e+003;1.092861e+001
1.114671e+003;1.140808e+001
1.116600e+003;1.188974e+001
1.118528e+003;1.236020e+001
1.120457e+003;1.280718e+001
1.122385e+003;1.322742e+001
1.124314e+003;1.361724e+001
1.126242e+003;1.397079e+001
1.128171e+003;1.428563e+001
1.130099e+003;1.455570e+001
1.132028e+003;1.478065e+001
1.133956e+003;1.496874e+001
1.135885e+003;1.512593e+001
1.137813e+003;1.525511e+001
1.139742e+003;1.535688e+001
1.141670e+003;1.543935e+001
1.143599e+003;1.552282e+001
1.145527e+003;1.560575e+001
1.147456e+003;1.567400e+001
1.149384e+003;1.573612e+001
1.151313e+003;1.582213e+001
1.153241e+003;1.593527e+001
1.155170e+003;1.604111e+001
1.157098e+003;1.612998e+001
1.159027e+003;1.620922e+001
1.160955e+003;1.628594e+001
1.162884e+003;1.636061e+001
1.164812e+003;1.643136e+001
1.166741e+003;1.650600e+001
1.168669e+003;1.657818e+001
1.170598e+003;1.664347e+001
1.172526e+003;1.670636e+001
1.174455e+003;1.676562e+001
1.176383e+003;1.680354e+001
1.178312e+003;1.679584e+001
1.180240e+003;1.678748e+001
1.182169e+003;1.691127e+001
1.184097e+003;1.710229e+001
1.186026e+003;1.722375e+001
1.187954e+003;1.731073e+001
1.189883e+003;1.738903e+001
1.191811e+003;1.746145e+001
1.193740e+003;1.752754e+001
1.195668e+003;1.759360e+001
1.197597e+003;1.765772e+001
1.199525e+003;1.772622e+001
1.201454e+003;1.779425e+001
1.203382e+003;1.785939e+001
1.205311e+003;1.792122e+001
1.207239e+003;1.797996e+001
1.209168e+003;1.803426e+001
1.211096e+003;1.809114e+001
1.213025e+003;1.814749e+001
1.214953e+003;1.820311e+001
1.216882e+003;1.825719e+001
1.218810e+003;1.830748e+001
1.220739e+003;1.835262e+001
1.222667e+003;1.839918e+001
1.224596e+003;1.844544e+001
1.226524e+003;1.849344e+001
1.228453e+003;1.854278e+001
1.230381e+003;1.859063e+001
1.232310e+003;1.863474e+001
1.234238e+003;1.867861e+001
1.236167e+003;1.872057e+001
1.238095e+003;1.876212e+001
1.240024e+003;1.880207e+001
1.241952e+003;1.883714e+001
1.243881e+003;1.886582e+001
1.245809e+003;1.889098e+001
1.247738e+003;1.891137e+001
1.249666e+003;1.893084e+001
1.251595e+003;1.894616e+001
1.253523e+003;1.895267e+001
1.255452e+003;1.894548e+001
1.257380e+003;1.892692e+001
1.259309e+003;1.890653e+001
1.261237e+003;1.890492e+001
1.263166e+003;1.893371e+001
1.265094e+003;1.899482e+001
1.267023e+003;1.907834e+001
1.268951e+003;1.916540e+001
1.270880e+003;1.923696e+001
1.272808e+003;1.929386e+001
1.274737e+003;1.933922e+001
1.276665e+003;1.937765e+001
1.278594e+003;1.940869e+001
1.280522e+003;1.943087e+001
1.282451e+003;1.944611e+001
1.284379e+003;1.945820e+001
1.286308e+003;1.946738e+001
1.288236e+003;1.947886e+001
1.290165e+003;1.949206e+001
1.292093e+003;1.950482e+001
1.294022e+003;1.951588e+001
1.295950e+003;1.952587e+001
1.297879e+003;1.953422e+001
1.299807e+003;1.954631e+001
1.301736e+003;1.956135e+001
1.303664e+003;1.957818e+001
1.305593e+003;1.959642e+001
1.307521e+003;1.961539e+001
1.309450e+003;1.963106e+001
1.311378e+003;1.964799e+001
1.313307e+003;1.966688e+001
1.315235e+003;1.968731e+001
1.317164e+003;1.970720e+001
1.319092e+003;1.972631e+001
1.321021e+003;1.974319e+001
1.322949e+003;1.976017e+001
1.324878e+003;1.977616e+001
1.326806e+003;1.979298e+001
1.328735e+003;1.981103e+001
1.330663e+003;1.982794e+001
1.332592e+003;1.983995e+001
1.334520e+003;1.985042e+001
1.336449e+003;1.985684e+001
1.338377e+003;1.986261e+001
1.340306e+003;1.987165e+001
1.342234e+003;1.988199e+001
1.344163e+003;1.988459e+001
1.346091e+003;1.988202e+001
1.348020e+003;1.987553e+001
1.349948e+003;1.987016e+001
1.351877e+003;1.986732e+001
1.353805e+003;1.986575e+001
1.355734e+003;1.986344e+001
1.357662e+003;1.986148e+001
1.359591e+003;1.985273e+001
1.361519e+003;1.984110e+001
1.363448e+003;1.983556e+001
1.365376e+003;1.983699e+001
1.367305e+003;1.983374e+001
1.369233e+003;1.982970e+001
1.371161e+003;1.982234e+001
1.373090e+003;1.981039e+001
1.375019e+003;1.980114e+001
1.376947e+003;1.979862e+001
1.378875e+003;1.979508e+001
1.380804e+003;1.978857e+001
1.382733e+003;1.977334e+001
1.384661e+003;1.976824e+001
1.386589e+003;1.977273e+001
1.388518e+003;1.978827e+001
1.390447e+003;1.980403e+001
1.392375e+003;1.980499e+001
1.394303e+003;1.979715e+001
1.396232e+003;1.980138e+001
1.398161e+003;1.979829e+001
1.400089e+003;1.980072e+001
1.402017e+003;1.981094e+001
1.403946e+003;1.981062e+001
1.405875e+003;1.981466e+001
1.407803e+003;1.982355e+001
1.409731e+003;1.982155e+001
1.411660e+003;1.981906e+001
1.413589e+003;1.981597e+001
1.415517e+003;1.980838e+001
1.417445e+003;1.978993e+001
1.419374e+003;1.977619e+001
1.421302e+003;1.978537e+001
1.423231e+003;1.978351e+001
1.425159e+003;1.977236e+001
1.427088e+003;1.975981e+001
1.429016e+003;1.974058e+001
1.430945e+003;1.972575e+001
1.432873e+003;1.970925e+001
1.434802e+003;1.967785e+001
1.436730e+003;1.964083e+001
1.438659e+003;1.963500e+001
1.440587e+003;1.962729e+001
1.442516e+003;1.961210e+001
1.444444e+003;1.959764e+001
1.446373e+003;1.958498e+001
1.448301e+003;1.957268e+001
1.450230e+003;1.957253e+001
1.452158e+003;1.957162e+001
1.454087e+003;1.956197e+001
1.456015e+003;1.952794e+001
1.457944e+003;1.954799e+001
1.459872e+003;1.960369e+001
1.461801e+003;1.963446e+001
1.463729e+003;1.964358e+001
1.465658e+003;1.966415e+001
1.467586e+003;1.970375e+001
1.469515e+003;1.972962e+001
1.471443e+003;1.973471e+001
1.473372e+003;1.975390e+001
1.475300e+003;1.979194e+001
1.477229e+003;1.982362e+001
1.479157e+003;1.985266e+001
1.481086e+003;1.986929e+001
1.483014e+003;1.988566e+001
1.484943e+003;1.989683e+001
1.486871e+003;1.989462e+001
1.488800e+003;1.989286e+001
1.490728e+003;1.990415e+001
1.492657e+003;1.992333e+001
1.494585e+003;1.991763e+001
1.496514e+003;1.990763e+001
1.498442e+003;1.991959e+001
1.500371e+003;1.993481e+001
1.502299e+003;1.993952e+001
1.504228e+003;1.990484e+001
1.506156e+003;1.985872e+001
1.508085e+003;1.987922e+001
1.510013e+003;1.991142e+001
1.511942e+003;1.991252e+001
1.513870e+003;1.990903e+001
1.515799e+003;1.989294e+001
1.517727e+003;1.988359e+001
1.519656e+003;1.986264e+001
1.521584e+003;1.984350e+001
1.523513e+003;1.986229e+001
1.525441e+003;1.986071e+001
1.527370e+003;1.985853e+001
1.529298e+003;1.986105e+001
1.531227e+003;1.985073e+001
1.533155e+003;1.983084e+001
1.535084e+003;1.983612e+001
1.537012e+003;1.981370e+001
1.538941e+003;1.975360e+001
1.540869e+003;1.974476e+001
1.542798e+003;1.977000e+001
1.544726e+003;1.978592e+001
1.546655e+003;1.979867e+001
1.548583e+003;1.979442e+001
1.550512e+003;1.978619e+001
1.552440e+003;1.977159e+001
1.554369e+003;1.975023e+001
1.556297e+003;1.972738e+001
1.558226e+003;1.967122e+001
1.560154e+003;1.967774e+001
1.562083e+003;1.973055e+001
1.564011e+003;1.973465e+001
1.565940e+003;1.972583e+001
1.567868e+003;1.971067e+001
1.569797e+003;1.969103e+001
1.571725e+003;1.969880e+001
1.573654e+003;1.968594e+001
1.575582e+003;1.963692e+001
1.577511e+003;1.964269e+001
1.579439e+003;1.966504e+001
1.581368e+003;1.965628e+001
1.583296e+003;1.964881e+001
1.585225e+003;1.964019e+001
1.587153e+003;1.962641e+001
1.589082e+003;1.961457e+001
1.591010e+003;1.960299e+001
1.592939e+003;1.958837e+001
1.594867e+003;1.957967e+001
1.596796e+003;1.957003e+001
1.598724e+003;1.955660e+001
1.600653e+003;1.954423e+001
1.602581e+003;1.952818e+001
1.604510e+003;1.951085e+001
1.606438e+003;1.949498e+001
1.608367e+003;1.947157e+001
1.610295e+003;1.945117e+001
1.612224e+003;1.943512e+001
1.614152e+003;1.939394e+001
1.616081e+003;1.931963e+001
1.618009e+003;1.928841e+001
1.619938e+003;1.928908e+001
1.621866e+003;1.929627e+001
1.623795e+003;1.931850e+001
1.625723e+003;1.933523e+001
1.627652e+003;1.933881e+001
1.629580e+003;1.934120e+001
1.631509e+003;1.933805e+001
1.633437e+003;1.931243e+001
1.635366e+003;1.927735e+001
1.637294e+003;1.928918e+001
1.639223e+003;1.930776e+001
1.641151e+003;1.930120e+001
1.643080e+003;1.928694e+001
1.645008e+003;1.925739e+001
1.646937e+003;1.924032e+001
1.648865e+003;1.924916e+001
1.650794e+003;1.920739e+001
1.652722e+003;1.913370e+001
1.654651e+003;1.917238e+001
1.656579e+003;1.922128e+001
1.658508e+003;1.921905e+001
1.660436e+003;1.920441e+001
1.662365e+003;1.918692e+001
1.664293e+003;1.917970e+001
1.666222e+003;1.917468e+001
1.668150e+003;1.914616e+001
1.670079e+003;1.912889e+001
1.672007e+003;1.913582e+001
1.673936e+003;1.912091e+001
1.675864e+003;1.910491e+001
1.677793e+003;1.911600e+001
1.679721e+003;1.910491e+001
1.681650e+003;1.907763e+001
1.683578e+003;1.902561e+001
1.685507e+003;1.902431e+001
1.687435e+003;1.905685e+001
1.689364e+003;1.905932e+001
1.691292e+003;1.904936e+001
1.693221e+003;1.902584e+001
1.695149e+003;1.897572e+001
1.697078e+003;1.896619e+001
1.699006e+003;1.894793e+001
1.700935e+003;1.893393e+001
1.702863e+003;1.895455e+001
1.704792e+003;1.894288e+001
1.706720e+003;1.893381e+001
1.708649e+003;1.892135e+001
1.710577e+003;1.890938e+001
1.712505e+003;1.888597e+001
1.714434e+003;1.884991e+001
1.716363e+003;1.880731e+001
1.718291e+003;1.878932e+001
1.720219e+003;1.880114e+001
1.722148e+003;1.879800e+001
1.724077e+003;1.877740e+001
1.726005e+003;1.875623e+001
1.727933e+003;1.873477e+001
1.729862e+003;1.870698e+001
1.731791e+003;1.866846e+001
1.733719e+003;1.862778e+001
1.735647e+003;1.864034e+001
1.737576e+003;1.866134e+001
1.739505e+003;1.865954e+001
1.741433e+003;1.866921e+001
1.743361e+003;1.868320e+001
1.745290e+003;1.869476e+001
1.747219e+003;1.869353e+001
1.749147e+003;1.868748e+001
1.751075e+003;1.867900e+001
1.753004e+003;1.868774e+001
1.754932e+003;1.869161e+001
1.756861e+003;1.868092e+001
1.758789e+003;1.867545e+001
1.760718e+003;1.866408e+001
1.762646e+003;1.865421e+001
1.764575e+003;1.865142e+001
1.766503e+003;1.863637e+001
1.768432e+003;1.861671e+001
1.770360e+003;1.860077e+001
1.772289e+003;1.858298e+001
1.774217e+003;1.858599e+001
1.776146e+003;1.858824e+001
1.778074e+003;1.858036e+001
1.780003e+003;1.856417e+001
1.781931e+003;1.855553e+001
1.783860e+003;1.854475e+001
1.785788e+003;1.853282e+001
1.787717e+003;1.852842e+001
1.789645e+003;1.851170e+001
1.791574e+003;1.848231e+001
1.793502e+003;1.847743e+001
1.795431e+003;1.848115e+001
1.797359e+003;1.846974e+001
1.799288e+003;1.845852e+001
1.801216e+003;1.844464e+001
1.803145e+003;1.843520e+001
1.805073e+003;1.842875e+001
1.807002e+003;1.841522e+001
1.808930e+003;1.840081e+001
1.810859e+003;1.839145e+001
1.812787e+003;1.837844e+001
1.814716e+003;1.836652e+001
1.816644e+003;1.835411e+001
1.818573e+003;1.833831e+001
1.820501e+003;1.832664e+001
1.822430e+003;1.831385e+001
1.824358e+003;1.829113e+001
1.826287e+003;1.827869e+001
1.828215e+003;1.826292e+001
1.830144e+003;1.824133e+001
1.832072e+003;1.823552e+001
1.834001e+003;1.822409e+001
1.835929e+003;1.820544e+001
1.837858e+003;1.819197e+001
1.839786e+003;1.817448e+001
1.841715e+003;1.814882e+001
1.843643e+003;1.812246e+001
1.845572e+003;1.810929e+001
1.847500e+003;1.810146e+001
1.849429e+003;1.808888e+001
1.851357e+003;1.806902e+001
1.853286e+003;1.805013e+001
1.855214e+003;1.803489e+001
1.857143e+003;1.801295e+001
1.859071e+003;1.799649e+001
1.861000e+003;1.798085e+001
1.862928e+003;1.795965e+001
1.864857e+003;1.794150e+001
1.866785e+003;1.791892e+001
1.868714e+003;1.789192e+001
1.870642e+003;1.788317e+001
1.872571e+003;1.787249e+001
1.874499e+003;1.785337e+001
1.876428e+003;1.783892e+001
1.878356e+003;1.782018e+001
1.880285e+003;1.780064e+001
1.882213e+003;1.778773e+001
1.884142e+003;1.776925e+001
1.886070e+003;1.775272e+001
1.887999e+003;1.773810e+001
1.889927e+003;1.771734e+001
1.891856e+003;1.770352e+001
1.893784e+003;1.769105e+001
1.895713e+003;1.767210e+001
1.897641e+003;1.765969e+001
1.899570e+003;1.764726e+001
1.901498e+003;1.762753e+001
1.903427e+003;1.761408e+001
1.905355e+003;1.760022e+001
1.907284e+003;1.758056e+001
1.909212e+003;1.756817e+001
1.911141e+003;1.755489e+001
1.913069e+003;1.753802e+001
1.914998e+003;1.752489e+001
1.916926e+003;1.750346e+001
1.918855e+003;1.748598e+001
1.920783e+003;1.747929e+001
1.922712e+003;1.746231e+001
1.924640e+003;1.744747e+001
1.926569e+003;1.743643e+001
1.928497e+003;1.741815e+001
1.930426e+003;1.740214e+001
1.932354e+003;1.739003e+001
1.934283e+003;1.737120e+001
1.936211e+003;1.735819e+001
1.938140e+003;1.734528e+001
1.940068e+003;1.732367e+001
1.941997e+003;1.730676e+001
1.943925e+003;1.729362e+001
1.945854e+003;1.727579e+001
1.947782e+003;1.726441e+001
1.949711e+003;1.724808e+001
1.951639e+003;1.722851e+001
1.953568e+003;1.721620e+001
1.955496e+003;1.719764e+001
1.957425e+003;1.717476e+001
1.959353e+003;1.716248e+001
1.961282e+003;1.714709e+001
1.963210e+003;1.713050e+001
1.965139e+003;1.711710e+001
1.967067e+003;1.709540e+001
1.968996e+003;1.707954e+001
1.970924e+003;1.706838e+001
1.972853e+003;1.704744e+001
1.974781e+003;1.703194e+001
1.976710e+003;1.701744e+001
1.978638e+003;1.699558e+001
1.980567e+003;1.698048e+001
1.982495e+003;1.696471e+001
1.984424e+003;1.694336e+001
1.986352e+003;1.693127e+001
1.988281e+003;1.691395e+001
1.990209e+003;1.689093e+001
1.992138e+003;1.687623e+001
1.994066e+003;1.685913e+001
1.995995e+003;1.684052e+001
1.997923e+003;1.682868e+001
1.999852e+003;1.680848e+001
2.001780e+003;1.679005e+001
2.003709e+003;1.677684e+001
2.005637e+003;1.675558e+001
2.007566e+003;1.673847e+001
2.009494e+003;1.672633e+001
2.011423e+003;1.670566e+001
2.013351e+003;1.669063e+001
2.015280e+003;1.667489e+001
2.017208e+003;1.665259e+001
2.019137e+003;1.663987e+001
2.021065e+003;1.662572e+001
2.022994e+003;1.660523e+001
2.024922e+003;1.659295e+001
2.026851e+003;1.657505e+001
2.028779e+003;1.655490e+001
2.030708e+003;1.654360e+001
2.032636e+003;1.652630e+001
2.034565e+003;1.650874e+001
2.036493e+003;1.649838e+001
2.038422e+003;1.647944e+001
2.040350e+003;1.646211e+001
2.042279e+003;1.644968e+001
2.044207e+003;1.643124e+001
2.046135e+003;1.641686e+001
2.048064e+003;1.640472e+001
2.049992e+003;1.638487e+001
2.051921e+003;1.637211e+001
2.053850e+003;1.635923e+001
2.055778e+003;1.633982e+001
2.057707e+003;1.632730e+001
2.059635e+003;1.631407e+001
2.061563e+003;1.629682e+001
2.063492e+003;1.628507e+001
2.065420e+003;1.626826e+001
2.067349e+003;1.625089e+001
2.069278e+003;1.624050e+001
2.071206e+003;1.622509e+001
2.073135e+003;1.620776e+001
2.075063e+003;1.619694e+001
2.076991e+003;1.617974e+001
2.078920e+003;1.616495e+001
2.080848e+003;1.615212e+001
2.082777e+003;1.613430e+001
2.084706e+003;1.612071e+001
2.086634e+003;1.610912e+001
2.088563e+003;1.609128e+001
2.090491e+003;1.607599e+001
2.092419e+003;1.606278e+001
2.094348e+003;1.604512e+001
2.096276e+003;1.603365e+001
2.098205e+003;1.601911e+001
2.100134e+003;1.600186e+001
2.102062e+003;1.598914e+001
2.103990e+003;1.597377e+001
2.105919e+003;1.595657e+001
2.107847e+003;1.594324e+001
2.109776e+003;1.592906e+001
2.111704e+003;1.591212e+001
2.113633e+003;1.590097e+001
2.115562e+003;1.588297e+001
2.117490e+003;1.586840e+001
2.119418e+003;1.585528e+001
2.121347e+003;1.584015e+001
2.123275e+003;1.582417e+001
2.125204e+003;1.581253e+001
2.127132e+003;1.579501e+001
2.129061e+003;1.578148e+001
2.130990e+003;1.576771e+001
2.132918e+003;1.575160e+001
2.134846e+003;1.573805e+001
2.136775e+003;1.572543e+001
2.138703e+003;1.570804e+001
2.140632e+003;1.569418e+001
2.142560e+003;1.568066e+001
2.144489e+003;1.566432e+001
2.146417e+003;1.565029e+001
2.148346e+003;1.563507e+001
2.150274e+003;1.561700e+001
2.152203e+003;1.560375e+001
2.154131e+003;1.558753e+001
2.156060e+003;1.557048e+001
2.157988e+003;1.555680e+001
2.159917e+003;1.554236e+001
2.161845e+003;1.552621e+001
2.163774e+003;1.551259e+001
2.165702e+003;1.549489e+001
2.167631e+003;1.547911e+001
2.169559e+003;1.546568e+001
2.171488e+003;1.544943e+001
2.173416e+003;1.543384e+001
2.175345e+003;1.542097e+001
2.177273e+003;1.540373e+001
2.179202e+003;1.538904e+001
2.181130e+003;1.537452e+001
2.183059e+003;1.535797e+001
2.184987e+003;1.534486e+001
2.186916e+003;1.533185e+001
2.188844e+003;1.531400e+001
2.190773e+003;1.530055e+001
2.192701e+003;1.528626e+001
2.194630e+003;1.527024e+001
2.196558e+003;1.525715e+001
2.198487e+003;1.524239e+001
2.200415e+003;1.522556e+001
2.202344e+003;1.521353e+001
2.204272e+003;1.519745e+001
2.206201e+003;1.518086e+001
2.208129e+003;1.516846e+001
2.210058e+003;1.515297e+001
2.211986e+003;1.513661e+001
2.213915e+003;1.512403e+001
2.215843e+003;1.510596e+001
2.217772e+003;1.509062e+001
2.219700e+003;1.507827e+001
2.221629e+003;1.506061e+001
2.223557e+003;1.504559e+001
2.225486e+003;1.503331e+001
2.227414e+003;1.501377e+001
2.229343e+003;1.499960e+001
2.231271e+003;1.498561e+001
2.233200e+003;1.496691e+001
2.235128e+003;1.495414e+001
2.237057e+003;1.493972e+001
2.238985e+003;1.491950e+001
2.240914e+003;1.490800e+001
2.242842e+003;1.489233e+001
2.244771e+003;1.487403e+001
2.246699e+003;1.486261e+001
2.248628e+003;1.484544e+001
2.250556e+003;1.482755e+001
2.252485e+003;1.481761e+001
2.254413e+003;1.479791e+001
2.256342e+003;1.478122e+001
2.258270e+003;1.477015e+001
2.260199e+003;1.475129e+001
2.262127e+003;1.473642e+001
2.264056e+003;1.472448e+001
2.265984e+003;1.470317e+001
2.267913e+003;1.469072e+001
2.269841e+003;1.467796e+001
2.271770e+003;1.465744e+001
2.273698e+003;1.464553e+001
2.275627e+003;1.463133e+001
2.277555e+003;1.461070e+001
2.279484e+003;1.460052e+001
2.281412e+003;1.458351e+001
2.283341e+003;1.456475e+001
2.285269e+003;1.455516e+001
2.287198e+003;1.453668e+001
2.289126e+003;1.451734e+001
2.291055e+003;1.450708e+001
2.292983e+003;1.448699e+001
2.294912e+003;1.447090e+001
2.296840e+003;1.445937e+001
2.298769e+003;1.443803e+001
2.300697e+003;1.442320e+001
2.302626e+003;1.441158e+001
2.304554e+003;1.438812e+001
2.306483e+003;1.437400e+001
2.308411e+003;1.435975e+001
2.310340e+003;1.433751e+001
2.312268e+003;1.432410e+001
2.314197e+003;1.430665e+001
2.316125e+003;1.428280e+001
2.318054e+003;1.427160e+001
2.319982e+003;1.425214e+001
2.321911e+003;1.422922e+001
2.323839e+003;1.421676e+001
2.325768e+003;1.419606e+001
2.327696e+003;1.417459e+001
2.329625e+003;1.416269e+001
2.331553e+003;1.414055e+001
2.333482e+003;1.412383e+001
2.335410e+003;1.411395e+001
2.337339e+003;1.409314e+001
2.339267e+003;1.407892e+001
2.341196e+003;1.407099e+001
2.343124e+003;1.405374e+001
2.345053e+003;1.404827e+001
2.346981e+003;1.404237e+001
2.348910e+003;1.402522e+001
2.350838e+003;1.400992e+001
2.352767e+003;1.398558e+001
2.354695e+003;1.395502e+001
2.356624e+003;1.393918e+001
2.358552e+003;1.391793e+001
2.360481e+003;1.389640e+001
2.362409e+003;1.388651e+001
2.364338e+003;1.386895e+001
2.366266e+003;1.385476e+001
2.368195e+003;1.385297e+001
2.370123e+003;1.383957e+001
2.372052e+003;1.383125e+001
2.373980e+003;1.382890e+001
2.375908e+003;1.381424e+001
2.377837e+003;1.380588e+001
2.379766e+003;1.380025e+001
2.381694e+003;1.378174e+001
2.383623e+003;1.377406e+001
2.385551e+003;1.376431e+001
2.387479e+003;1.374455e+001
2.389408e+003;1.373631e+001
2.391336e+003;1.372414e+001
2.393265e+003;1.370388e+001
2.395194e+003;1.369621e+001
2.397122e+003;1.367958e+001
2.399051e+003;1.366056e+001
2.400979e+003;1.365244e+001
2.402907e+003;1.363361e+001
2.404836e+003;1.361521e+001
2.406764e+003;1.360827e+001
2.408693e+003;1.358818e+001
2.410622e+003;1.357282e+001
2.412550e+003;1.356324e+001
2.414479e+003;1.354153e+001
2.416407e+003;1.352792e+001
2.418335e+003;1.351838e+001
2.420264e+003;1.349598e+001
2.422192e+003;1.348454e+001
2.424121e+003;1.347179e+001
2.426050e+003;1.344990e+001
2.427978e+003;1.343948e+001
2.429906e+003;1.342520e+001
2.431835e+003;1.340378e+001
2.433763e+003;1.339612e+001
2.435692e+003;1.337911e+001
2.437620e+003;1.335883e+001
2.439549e+003;1.335046e+001
2.441478e+003;1.333244e+001
2.443406e+003;1.331432e+001
2.445334e+003;1.330644e+001
2.447263e+003;1.328541e+001
2.449191e+003;1.327002e+001
2.451120e+003;1.326089e+001
2.453048e+003;1.323892e+001
2.454977e+003;1.322521e+001
2.456906e+003;1.321627e+001
2.458834e+003;1.319381e+001
2.460762e+003;1.318227e+001
2.462691e+003;1.316946e+001
2.464619e+003;1.314737e+001
2.466548e+003;1.313801e+001
2.468476e+003;1.312449e+001
2.470405e+003;1.310224e+001
2.472333e+003;1.309408e+001
2.474262e+003;1.307744e+001
2.476190e+003;1.305755e+001
2.478119e+003;1.304927e+001
2.480047e+003;1.303059e+001
2.481976e+003;1.301254e+001
2.483904e+003;1.300557e+001
2.485833e+003;1.298417e+001
2.487761e+003;1.296798e+001
2.489690e+003;1.295932e+001
2.491618e+003;1.293813e+001
2.493547e+003;1.292463e+001
2.495475e+003;1.291493e+001
2.497404e+003;1.289186e+001
2.499332e+003;1.288101e+001
2.501261e+003;1.286892e+001
2.503189e+003;1.284628e+001
2.505118e+003;1.283630e+001
2.507046e+003;1.282262e+001
2.508975e+003;1.280127e+001
2.510903e+003;1.279386e+001
2.512832e+003;1.277669e+001
2.514760e+003;1.275664e+001
2.516689e+003;1.274925e+001
2.518617e+003;1.273105e+001
2.520546e+003;1.271223e+001
2.522474e+003;1.270506e+001
2.524403e+003;1.268469e+001
2.526331e+003;1.266910e+001
2.528260e+003;1.266000e+001
2.530188e+003;1.263801e+001
2.532117e+003;1.262415e+001
2.534045e+003;1.261467e+001
2.535974e+003;1.259114e+001
2.537902e+003;1.257951e+001
2.539831e+003;1.256761e+001
2.541759e+003;1.254548e+001
2.543688e+003;1.253567e+001
2.545616e+003;1.252151e+001
2.547545e+003;1.249903e+001
2.549473e+003;1.249151e+001
2.551402e+003;1.247455e+001
2.553330e+003;1.245403e+001
2.555259e+003;1.244653e+001
2.557187e+003;1.242843e+001
2.559116e+003;1.241005e+001
2.561044e+003;1.240275e+001
2.562973e+003;1.238113e+001
2.564901e+003;1.236595e+001
2.566830e+003;1.235819e+001
2.568758e+003;1.233631e+001
2.570687e+003;1.232187e+001
2.572615e+003;1.231243e+001
2.574544e+003;1.228976e+001
2.576472e+003;1.227888e+001
2.578401e+003;1.226668e+001
2.580329e+003;1.224465e+001
2.582258e+003;1.223579e+001
2.584186e+003;1.222200e+001
2.586115e+003;1.219943e+001
2.588043e+003;1.219177e+001
2.589972e+003;1.217546e+001
2.591900e+003;1.215614e+001
2.593829e+003;1.214869e+001
2.595757e+003;1.212975e+001
2.597686e+003;1.211114e+001
2.599614e+003;1.210476e+001
2.601543e+003;1.208384e+001
2.603471e+003;1.206801e+001
2.605400e+003;1.205981e+001
2.607328e+003;1.203856e+001
2.609257e+003;1.202516e+001
2.611185e+003;1.201591e+001
2.613114e+003;1.199263e+001
2.615042e+003;1.198225e+001
2.616971e+003;1.197099e+001
2.618899e+003;1.194842e+001
2.620828e+003;1.193874e+001
2.622756e+003;1.192559e+001
2.624685e+003;1.190381e+001
2.626613e+003;1.189675e+001
2.628542e+003;1.187988e+001
2.630470e+003;1.185970e+001
2.632399e+003;1.185319e+001
2.634327e+003;1.183527e+001
2.636256e+003;1.181612e+001
2.638184e+003;1.180910e+001
2.640113e+003;1.178869e+001
2.642041e+003;1.177356e+001
2.643970e+003;1.176537e+001
2.645898e+003;1.174385e+001
2.647827e+003;1.173047e+001
2.649755e+003;1.172207e+001
2.651684e+003;1.169934e+001
2.653612e+003;1.168824e+001
2.655541e+003;1.167649e+001
2.657469e+003;1.165494e+001
2.659398e+003;1.164543e+001
2.661326e+003;1.163160e+001
2.663255e+003;1.161016e+001
2.665183e+003;1.160354e+001
2.667112e+003;1.158722e+001
2.669040e+003;1.156708e+001
2.670969e+003;1.155949e+001
2.672897e+003;1.154196e+001
2.674826e+003;1.152400e+001
2.676754e+003;1.151691e+001
2.678683e+003;1.149620e+001
2.680611e+003;1.148159e+001
2.682540e+003;1.147389e+001
2.684468e+003;1.145238e+001
2.686397e+003;1.143851e+001
2.688325e+003;1.142939e+001
2.690254e+003;1.140800e+001
2.692182e+003;1.139808e+001
2.694111e+003;1.138557e+001
2.696039e+003;1.136358e+001
2.697968e+003;1.135468e+001
2.699896e+003;1.134151e+001
2.701825e+003;1.132015e+001
2.703753e+003;1.131262e+001
2.705682e+003;1.129619e+001
2.707610e+003;1.127752e+001
2.709539e+003;1.127014e+001
2.711467e+003;1.125157e+001
2.713396e+003;1.123392e+001
2.715324e+003;1.122755e+001
2.717253e+003;1.120697e+001
2.719181e+003;1.119164e+001
2.721110e+003;1.118337e+001
2.723038e+003;1.116246e+001
2.724967e+003;1.114942e+001
2.726895e+003;1.113990e+001
2.728823e+003;1.111767e+001
2.730752e+003;1.110822e+001
2.732681e+003;1.109676e+001
2.734609e+003;1.107495e+001
2.736538e+003;1.106558e+001
2.738466e+003;1.105265e+001
2.740395e+003;1.103224e+001
2.742323e+003;1.102521e+001
2.744251e+003;1.100874e+001
2.746180e+003;1.098981e+001
2.748109e+003;1.098293e+001
2.750037e+003;1.096513e+001
2.751966e+003;1.094741e+001
2.753894e+003;1.094076e+001
2.755823e+003;1.092063e+001
2.757751e+003;1.090602e+001
2.759679e+003;1.089765e+001
2.761608e+003;1.087661e+001
2.763537e+003;1.086398e+001
2.765465e+003;1.085575e+001
2.767394e+003;1.083393e+001
2.769322e+003;1.082304e+001
2.771250e+003;1.081121e+001
2.773179e+003;1.079029e+001
2.775107e+003;1.078099e+001
2.777036e+003;1.076751e+001
2.778965e+003;1.074701e+001
2.780893e+003;1.074022e+001
2.782822e+003;1.072412e+001
2.784750e+003;1.070463e+001
2.786678e+003;1.069687e+001
2.788607e+003;1.067996e+001
2.790535e+003;1.066283e+001
2.792464e+003;1.065496e+001
2.794393e+003;1.063478e+001
2.796321e+003;1.062072e+001
2.798250e+003;1.061261e+001
2.800178e+003;1.059216e+001
2.802106e+003;1.057865e+001
2.804035e+003;1.056925e+001
2.805963e+003;1.054844e+001
2.807892e+003;1.053831e+001
2.809821e+003;1.052541e+001
2.811749e+003;1.050430e+001
2.813677e+003;1.049553e+001
2.815606e+003;1.048217e+001
2.817534e+003;1.046126e+001
2.819463e+003;1.045256e+001
2.821391e+003;1.043587e+001
2.823320e+003;1.041779e+001
2.825249e+003;1.040955e+001
2.827177e+003;1.039100e+001
2.829105e+003;1.037357e+001
2.831034e+003;1.036573e+001
2.832962e+003;1.034446e+001
2.834891e+003;1.032813e+001
2.836819e+003;1.031727e+001
2.838748e+003;1.029524e+001
2.840677e+003;1.027934e+001
2.842605e+003;1.026454e+001
2.844533e+003;1.023777e+001
2.846462e+003;1.022301e+001
2.848390e+003;1.020620e+001
2.850319e+003;1.018070e+001
2.852247e+003;1.016679e+001
2.854176e+003;1.014972e+001
2.856104e+003;1.012828e+001
2.858033e+003;1.012058e+001
2.859961e+003;1.010388e+001
2.861890e+003;1.008686e+001
2.863818e+003;1.008140e+001
2.865747e+003;1.006474e+001
2.867675e+003;1.004677e+001
2.869604e+003;1.003843e+001
2.871532e+003;1.001861e+001
2.873461e+003;1.000462e+001
2.875389e+003;9.995753e+000
2.877318e+003;9.976611e+000
2.879246e+003;9.966279e+000
2.881175e+003;9.959203e+000
2.883103e+003;9.938977e+000
2.885032e+003;9.927981e+000
2.886960e+003;9.915631e+000
2.888889e+003;9.895808e+000
2.890817e+003;9.885273e+000
2.892746e+003;9.869738e+000
2.894674e+003;9.848099e+000
2.896603e+003;9.838941e+000
2.898531e+003;9.821048e+000
2.900460e+003;9.799954e+000
2.902388e+003;9.788620e+000
2.904317e+003;9.769405e+000
2.906245e+003;9.750622e+000
2.908174e+003;9.739349e+000
2.910102e+003;9.716095e+000
2.912031e+003;9.698725e+000
2.913959e+003;9.686018e+000
2.915888e+003;9.661794e+000
2.917816e+003;9.643849e+000
2.919745e+003;9.629022e+000
2.921673e+003;9.605000e+000
2.923602e+003;9.591726e+000
2.925530e+003;9.576601e+000
2.927459e+003;9.556459e+000
2.929387e+003;9.549269e+000
2.931316e+003;9.538868e+000
2.933244e+003;9.522995e+000
2.935173e+003;9.518744e+000
2.937101e+003;9.507412e+000
2.939030e+003;9.495699e+000
2.940958e+003;9.491726e+000
2.942887e+003;9.477581e+000
2.944815e+003;9.464221e+000
2.946744e+003;9.458047e+000
2.948672e+003;9.438510e+000
2.950601e+003;9.422316e+000
2.952529e+003;9.408718e+000
2.954458e+003;9.385351e+000
2.956386e+003;9.368278e+000
2.958315e+003;9.351790e+000
2.960243e+003;9.326181e+000
2.962172e+003;9.314108e+000
2.964100e+003;9.302534e+000
2.966029e+003;9.287433e+000
2.967957e+003;9.287212e+000
2.969886e+003;9.286331e+000
2.971814e+003;9.280501e+000
2.973743e+003;9.283484e+000
2.975671e+003;9.275201e+000
2.977600e+003;9.265500e+000
2.979528e+003;9.264573e+000
2.981457e+003;9.252780e+000
2.983385e+003;9.240626e+000
2.985314e+003;9.236554e+000
2.987242e+003;9.221065e+000
2.989171e+003;9.210456e+000
2.991099e+003;9.202818e+000
2.993028e+003;9.184918e+000
2.994956e+003;9.174924e+000
2.996885e+003;9.166965e+000
2.998813e+003;9.147394e+000
3.000742e+003;9.137480e+000
3.002670e+003;9.126349e+000
3.004599e+003;9.109208e+000
3.006527e+003;9.100368e+000
3.008456e+003;9.086491e+000
3.010384e+003;9.068448e+000
3.012313e+003;9.061447e+000
3.014241e+003;9.045859e+000
3.016170e+003;9.028329e+000
3.018098e+003;9.020011e+000
3.020027e+003;9.004853e+000
3.021955e+003;8.990240e+000
3.023884e+003;8.981439e+000
3.025812e+003;8.962388e+000
3.027741e+003;8.949887e+000
3.029669e+003;8.940909e+000
3.031598e+003;8.922328e+000
3.033526e+003;8.909767e+000
3.035455e+003;8.899373e+000
3.037383e+003;8.881322e+000
3.039312e+003;8.871817e+000
3.041240e+003;8.858568e+000
3.043169e+003;8.840736e+000
3.045097e+003;8.832191e+000
3.047026e+003;8.818217e+000
3.048954e+003;8.799751e+000
3.050883e+003;8.791403e+000
3.052811e+003;8.775638e+000
3.054740e+003;8.760388e+000
3.056668e+003;8.751171e+000
3.058597e+003;8.733305e+000
3.060525e+003;8.718851e+000
3.062454e+003;8.711121e+000
3.064382e+003;8.692173e+000
3.066311e+003;8.678784e+000
3.068239e+003;8.668727e+000
3.070167e+003;8.651104e+000
3.072096e+003;8.639750e+000
3.074025e+003;8.628076e+000
3.075953e+003;8.608452e+000
3.077882e+003;8.599753e+000
3.079810e+003;8.587200e+000
3.081739e+003;8.568450e+000
3.083667e+003;8.558727e+000
3.085595e+003;8.544771e+000
3.087524e+003;8.527510e+000
3.089453e+003;8.519122e+000
3.091381e+003;8.502100e+000
3.093310e+003;8.486040e+000
3.095238e+003;8.477587e+000
3.097167e+003;8.460734e+000
3.099095e+003;8.444871e+000
3.101023e+003;8.435897e+000
3.102952e+003;8.418287e+000
3.104881e+003;8.405681e+000
3.106809e+003;8.395029e+000
3.108738e+003;8.376654e+000
3.110666e+003;8.364863e+000
3.112594e+003;8.354196e+000
3.114523e+003;8.335538e+000
3.116451e+003;8.324860e+000
3.118380e+003;8.312174e+000
3.120309e+003;8.295508e+000
3.122237e+003;8.285103e+000
3.124166e+003;8.270627e+000
3.126094e+003;8.253756e+000
3.128022e+003;8.245498e+000
3.129951e+003;8.229936e+000
3.131879e+003;8.214389e+000
3.133808e+003;8.204437e+000
3.135737e+003;8.188625e+000
3.137665e+003;8.174993e+000
3.139594e+003;8.165131e+000
3.141522e+003;8.146729e+000
3.143450e+003;8.134685e+000
3.145379e+003;8.124101e+000
3.147307e+003;8.106681e+000
3.149236e+003;8.095121e+000
3.151165e+003;8.083793e+000
3.153093e+003;8.066306e+000
3.155021e+003;8.056640e+000
3.156950e+003;8.042470e+000
3.158878e+003;8.025309e+000
3.160807e+003;8.015979e+000
3.162735e+003;8.001948e+000
3.164664e+003;7.985341e+000
3.166593e+003;7.976321e+000
3.168521e+003;7.960224e+000
3.170449e+003;7.945905e+000
3.172378e+003;7.936274e+000
3.174306e+003;7.919237e+000
3.176235e+003;7.905456e+000
3.178163e+003;7.896493e+000
3.180092e+003;7.878682e+000
3.182021e+003;7.866029e+000
3.183949e+003;7.854893e+000
3.185877e+003;7.837867e+000
3.187806e+003;7.826614e+000
3.189734e+003;7.814614e+000
3.191663e+003;7.796133e+000
3.193591e+003;7.785967e+000
3.195520e+003;7.772456e+000
3.197448e+003;7.755356e+000
3.199377e+003;7.745015e+000
3.201305e+003;7.730543e+000
3.203234e+003;7.713867e+000
3.205162e+003;7.704338e+000
3.207091e+003;7.688259e+000
3.209019e+003;7.674170e+000
3.210948e+003;7.665277e+000
3.212876e+003;7.650167e+000
3.214805e+003;7.636961e+000
3.216733e+003;7.627472e+000
3.218662e+003;7.610868e+000
3.220590e+003;7.599539e+000
3.222519e+003;7.588576e+000
3.224447e+003;7.572169e+000
3.226376e+003;7.560934e+000
3.228304e+003;7.549565e+000
3.230233e+003;7.532976e+000
3.232161e+003;7.523013e+000
3.234090e+003;7.509525e+000
3.236018e+003;7.494108e+000
3.237947e+003;7.484114e+000
3.239875e+003;7.469727e+000
3.241804e+003;7.454464e+000
3.243732e+003;7.445169e+000
3.245661e+003;7.429861e+000
3.247589e+003;7.416561e+000
3.249518e+003;7.405954e+000
3.251446e+003;7.390189e+000
3.253375e+003;7.377691e+000
3.255303e+003;7.367637e+000
3.257232e+003;7.350564e+000
3.259160e+003;7.339311e+000
3.261089e+003;7.328083e+000
3.263017e+003;7.312317e+000
3.264946e+003;7.300966e+000
3.266874e+003;7.288689e+000
3.268803e+003;7.273025e+000
3.270731e+003;7.263911e+000
3.272660e+003;7.250020e+000
3.274588e+003;7.234827e+000
3.276517e+003;7.225385e+000
3.278445e+003;7.212022e+000
3.280374e+003;7.197297e+000
3.282302e+003;7.187905e+000
3.284231e+003;7.172676e+000
3.286159e+003;7.159838e+000
3.288088e+003;7.150254e+000
3.290016e+003;7.135145e+000
3.291945e+003;7.122067e+000
3.293873e+003;7.112256e+000
3.295802e+003;7.097006e+000
3.297730e+003;7.086031e+000
3.299659e+003;7.074489e+000
3.301587e+003;7.059845e+000
3.303516e+003;7.049951e+000
3.305444e+003;7.038704e+000
3.307373e+003;7.022829e+000
3.309301e+003;7.012961e+000
3.311230e+003;7.000512e+000
3.313158e+003;6.986859e+000
3.315087e+003;6.976755e+000
3.317015e+003;6.963523e+000
3.318944e+003;6.950591e+000
3.320872e+003;6.942214e+000
3.322801e+003;6.928156e+000
3.324729e+003;6.915813e+000
3.326658e+003;6.905726e+000
3.328586e+003;6.892252e+000
3.330515e+003;6.880746e+000
3.332443e+003;6.870467e+000
3.334372e+003;6.855993e+000
3.336300e+003;6.846593e+000
3.338229e+003;6.835964e+000
3.340157e+003;6.821555e+000
3.342086e+003;6.810963e+000
3.344014e+003;6.800374e+000
3.345943e+003;6.787104e+000
3.347871e+003;6.778025e+000
3.349800e+003;6.765151e+000
3.351728e+003;6.752828e+000
3.353657e+003;6.744264e+000
3.355585e+003;6.731591e+000
3.357514e+003;6.718319e+000
3.359442e+003;6.709486e+000
3.361371e+003;6.696705e+000
3.363299e+003;6.686094e+000
3.365228e+003;6.675634e+000
3.367156e+003;6.662165e+000
3.369085e+003;6.652459e+000
3.371013e+003;6.643346e+000
3.372942e+003;6.628358e+000
3.374870e+003;6.618088e+000
3.376799e+003;6.608144e+000
3.378727e+003;6.595764e+000
3.380656e+003;6.585234e+000
3.382584e+003;6.573248e+000
3.384513e+003;6.560180e+000
3.386441e+003;6.551881e+000
3.388370e+003;6.539294e+000
3.390298e+003;6.526112e+000
3.392227e+003;6.516263e+000
3.394155e+003;6.504480e+000
3.396083e+003;6.492129e+000
3.398012e+003;6.481484e+000
3.399941e+003;6.467359e+000
3.401869e+003;6.456745e+000
3.403798e+003;6.446492e+000
3.405726e+003;6.431977e+000
3.407655e+003;6.419028e+000
3.409583e+003;6.408229e+000
3.411511e+003;6.394310e+000
3.413440e+003;6.382481e+000
3.415369e+003;6.368379e+000
3.417297e+003;6.353710e+000
3.419226e+003;6.341687e+000
3.421154e+003;6.327261e+000
3.423083e+003;6.310075e+000
3.425011e+003;6.296619e+000
3.426939e+003;6.280914e+000
3.428868e+003;6.264928e+000
3.430797e+003;6.249221e+000
3.432725e+003;6.231800e+000
3.434654e+003;6.216925e+000
3.436582e+003;6.204885e+000
3.438510e+003;6.188930e+000
3.440439e+003;6.176172e+000
3.442367e+003;6.166279e+000
3.444296e+003;6.155860e+000
3.446225e+003;6.145923e+000
3.448153e+003;6.136313e+000
3.450082e+003;6.125776e+000
3.452010e+003;6.118791e+000
3.453938e+003;6.108998e+000
3.455867e+003;6.097364e+000
3.457795e+003;6.088174e+000
3.459724e+003;6.078899e+000
3.461653e+003;6.068157e+000
3.463581e+003;6.058855e+000
3.465510e+003;6.047157e+000
3.467438e+003;6.038124e+000
3.469366e+003;6.030557e+000
3.471295e+003;6.020177e+000
3.473223e+003;6.010427e+000
3.475152e+003;6.003952e+000
3.477081e+003;5.995683e+000
3.479009e+003;5.988673e+000
3.480938e+003;5.980627e+000
3.482866e+003;5.973080e+000
3.484794e+003;5.968539e+000
3.486723e+003;5.963383e+000
3.488651e+003;5.955367e+000
3.490580e+003;5.950811e+000
3.492509e+003;5.946126e+000
3.494437e+003;5.941176e+000
3.496365e+003;5.936313e+000
3.498294e+003;5.930375e+000
3.500222e+003;5.924837e+000
3.502151e+003;5.921420e+000
3.504079e+003;5.915079e+000
3.506008e+003;5.909438e+000
3.507937e+003;5.904406e+000
3.509865e+003;5.899193e+000
3.511793e+003;5.893915e+000
3.513722e+003;5.888027e+000
3.515650e+003;5.880641e+000
3.517579e+003;5.876606e+000
3.519507e+003;5.870677e+000
3.521436e+003;5.862385e+000
3.523365e+003;5.855237e+000
3.525293e+003;5.849775e+000
3.527221e+003;5.843060e+000
3.529150e+003;5.836863e+000
3.531078e+003;5.828709e+000
3.533007e+003;5.821982e+000
3.534935e+003;5.815883e+000
3.536864e+003;5.808236e+000
3.538792e+003;5.799423e+000
3.540721e+003;5.792554e+000
3.542649e+003;5.784471e+000
3.544578e+003;5.776227e+000
3.546506e+003;5.766898e+000
3.548435e+003;5.758703e+000
3.550363e+003;5.751405e+000
3.552292e+003;5.743915e+000
3.554220e+003;5.734248e+000
3.556149e+003;5.725446e+000
3.558077e+003;5.716732e+000
3.560006e+003;5.709012e+000
3.561934e+003;5.699821e+000
3.563863e+003;5.688598e+000
3.565791e+003;5.676953e+000
3.567720e+003;5.669516e+000
3.569648e+003;5.662804e+000
3.571577e+003;5.654898e+000
3.573505e+003;5.645838e+000
3.575434e+003;5.638077e+000
3.577362e+003;5.630137e+000
3.579291e+003;5.620601e+000
3.581219e+003;5.610707e+000
3.583148e+003;5.603820e+000
3.585076e+003;5.593935e+000
3.587005e+003;5.582121e+000
3.588933e+003;5.573922e+000
3.590862e+003;5.568799e+000
3.592790e+003;5.561312e+000
3.594719e+003;5.552914e+000
3.596647e+003;5.542704e+000
3.598576e+003;5.534581e+000
3.600504e+003;5.527187e+000
3.602433e+003;5.519542e+000
3.604361e+003;5.509552e+000
3.606290e+003;5.498401e+000
3.608218e+003;5.487044e+000
3.610147e+003;5.480368e+000
3.612075e+003;5.470834e+000
3.614004e+003;5.461552e+000
3.615932e+003;5.453808e+000
3.617861e+003;5.443301e+000
3.619789e+003;5.432867e+000
3.621718e+003;5.426469e+000
3.623646e+003;5.417856e+000
3.625575e+003;5.408298e+000
3.627503e+003;5.391421e+000
3.629432e+003;5.378433e+000
3.631360e+003;5.376490e+000
3.633289e+003;5.371078e+000
3.635217e+003;5.361432e+000
3.637146e+003;5.351530e+000
3.639074e+003;5.340131e+000
3.641003e+003;5.329753e+000
3.642931e+003;5.318912e+000
3.644860e+003;5.301399e+000
3.646788e+003;5.277833e+000
3.648717e+003;5.263776e+000
3.650645e+003;5.263486e+000
3.652574e+003;5.266180e+000
3.654502e+003;5.257893e+000
3.656431e+003;5.246835e+000
3.658359e+003;5.241834e+000
3.660288e+003;5.234563e+000
3.662216e+003;5.221738e+000
3.664145e+003;5.211659e+000
3.666073e+003;5.202315e+000
3.668002e+003;5.188161e+000
3.669930e+003;5.172915e+000
3.671859e+003;5.165990e+000
3.673787e+003;5.153821e+000
3.675716e+003;5.142670e+000
3.677644e+003;5.140090e+000
3.679573e+003;5.133281e+000
3.681501e+003;5.126806e+000
3.683430e+003;5.119042e+000
3.685358e+003;5.107623e+000
3.687287e+003;5.090471e+000
3.689215e+003;5.079057e+000
3.691144e+003;5.077952e+000
3.693072e+003;5.074347e+000
3.695001e+003;5.065038e+000
3.696929e+003;5.056038e+000
3.698858e+003;5.048871e+000
3.700786e+003;5.037769e+000
3.702715e+003;5.030389e+000
3.704643e+003;5.022147e+000
3.706572e+003;5.012123e+000
3.708500e+003;5.003022e+000
3.710429e+003;4.990059e+000
3.712357e+003;4.977527e+000
3.714286e+003;4.974916e+000
3.716214e+003;4.968009e+000
3.718143e+003;4.957673e+000
3.720071e+003;4.945865e+000
3.722000e+003;4.932531e+000
3.723928e+003;4.921544e+000
3.725857e+003;4.911142e+000
3.727785e+003;4.896159e+000
3.729714e+003;4.881130e+000
3.731642e+003;4.864371e+000
3.733571e+003;4.850361e+000
3.735499e+003;4.838451e+000
3.737427e+003;4.835228e+000
3.739356e+003;4.837379e+000
3.741285e+003;4.842820e+000
3.743213e+003;4.835710e+000
3.745142e+003;4.836487e+000
3.747070e+003;4.847283e+000
3.748999e+003;4.843292e+000
3.750927e+003;4.838596e+000
3.752855e+003;4.841021e+000
3.754784e+003;4.842381e+000
3.756713e+003;4.838709e+000
3.758641e+003;4.835046e+000
3.760570e+003;4.827348e+000
3.762498e+003;4.821624e+000
3.764427e+003;4.815833e+000
3.766355e+003;4.808248e+000
3.768283e+003;4.800949e+000
3.770212e+003;4.793044e+000
3.772141e+003;4.786559e+000
3.774069e+003;4.783156e+000
3.775998e+003;4.776188e+000
3.777926e+003;4.763636e+000
3.779854e+003;4.757044e+000
3.781783e+003;4.752141e+000
3.783711e+003;4.744046e+000
3.785640e+003;4.737425e+000
3.787569e+003;4.728252e+000
3.789497e+003;4.720647e+000
3.791426e+003;4.716537e+000
3.793354e+003;4.705909e+000
3.795282e+003;4.694557e+000
3.797211e+003;4.689061e+000
3.799139e+003;4.677877e+000
3.801068e+003;4.664927e+000
3.802997e+003;4.662486e+000
3.804925e+003;4.653855e+000
3.806854e+003;4.646247e+000
3.808782e+003;4.644343e+000
3.810710e+003;4.635661e+000
3.812639e+003;4.627772e+000
3.814567e+003;4.614964e+000
3.816496e+003;4.604720e+000
3.818425e+003;4.602890e+000
3.820353e+003;4.590164e+000
3.822281e+003;4.583601e+000
3.824210e+003;4.583798e+000
3.826138e+003;4.574837e+000
3.828067e+003;4.565359e+000
3.829995e+003;4.559262e+000
3.831924e+003;4.549804e+000
3.833853e+003;4.542325e+000
3.835781e+003;4.530973e+000
3.837709e+003;4.516931e+000
3.839638e+003;4.516471e+000
3.841566e+003;4.514971e+000
3.843495e+003;4.504483e+000
3.845423e+003;4.499226e+000
3.847352e+003;4.493752e+000
3.849281e+003;4.482594e+000
3.851209e+003;4.467816e+000
3.853137e+003;4.449958e+000
3.855066e+003;4.448086e+000
3.856994e+003;4.455957e+000
3.858923e+003;4.449214e+000
3.860851e+003;4.437956e+000
3.862780e+003;4.431280e+000
3.864708e+003;4.422708e+000
3.866637e+003;4.416585e+000
3.868565e+003;4.407372e+000
3.870494e+003;4.396078e+000
3.872422e+003;4.394753e+000
3.874351e+003;4.391474e+000
3.876279e+003;4.382846e+000
3.878208e+003;4.374485e+000
3.880136e+003;4.367715e+000
3.882065e+003;4.359940e+000
3.883993e+003;4.352924e+000
3.885922e+003;4.343068e+000
3.887850e+003;4.337036e+000
3.889779e+003;4.332887e+000
3.891707e+003;4.325382e+000
3.893636e+003;4.317202e+000
3.895564e+003;4.313287e+000
3.897493e+003;4.303929e+000
3.899421e+003;4.294757e+000
3.901350e+003;4.288435e+000
3.903278e+003;4.277961e+000
3.905207e+003;4.273903e+000
3.907135e+003;4.273947e+000
3.909064e+003;4.264002e+000
3.910992e+003;4.256640e+000
3.912921e+003;4.251332e+000
3.914849e+003;4.242216e+000
3.916778e+003;4.235851e+000
3.918706e+003;4.228857e+000
3.920635e+003;4.219276e+000
3.922563e+003;4.216967e+000
3.924492e+003;4.210155e+000
3.926420e+003;4.200135e+000
3.928349e+003;4.195309e+000
3.930277e+003;4.188005e+000
3.932206e+003;4.179932e+000
3.934134e+003;4.176817e+000
3.936063e+003;4.167099e+000
3.937991e+003;4.160356e+000
3.939920e+003;4.157596e+000
3.941848e+003;4.147325e+000
3.943777e+003;4.139426e+000
3.945705e+003;4.135554e+000
3.947634e+003;4.126450e+000
3.949562e+003;4.121836e+000
3.951491e+003;4.115593e+000
3.953419e+003;4.105565e+000
3.955348e+003;4.102444e+000
3.957276e+003;4.097526e+000
3.959205e+003;4.086298e+000
3.961133e+003;4.081738e+000
3.963062e+003;4.075648e+000
3.964990e+003;4.068250e+000
3.966919e+003;4.064320e+000
3.968847e+003;4.054893e+000
3.970776e+003;4.046860e+000
3.972704e+003;4.045582e+000
3.974633e+003;4.036219e+000
3.976561e+003;4.028025e+000
3.978490e+003;4.024220e+000
3.980418e+003;4.016289e+000
3.982347e+003;4.011154e+000
3.984275e+003;4.006086e+000
3.986204e+003;3.995097e+000
3.988132e+003;3.991915e+000
3.990061e+003;3.987710e+000
3.991989e+003;3.977129e+000
3.993918e+003;3.972259e+000
3.995846e+003;3.967039e+000
3.997775e+003;3.958966e+000
3.999703e+003;3.956035e+000
