3.991989e+002;9.806110e+001
4.011274e+002;9.802522e+001
4.030559e+002;9.799094e+001
4.049844e+002;9.815351e+001
4.069129e+002;9.832510e+001
4.088414e+002;9.833350e+001
4.107699e+002;9.830751e+001
4.126984e+002;9.836153e+001
4.146269e+002;9.845850e+001
4.165554e+002;9.849519e+001
4.184839e+002;9.841874e+001
4.204124e+002;9.838107e+001
4.223409e+002;9.845735e+001
4.242694e+002;9.851580e+001
4.261979e+002;9.848904e+001
4.281264e+002;9.848042e+001
4.300549e+002;9.848076e+001
4.319834e+002;9.848059e+001
4.339119e+002;9.848811e+001
4.358404e+002;9.852326e+001
4.377689e+002;9.856146e+001
4.396974e+002;9.857585e+001
4.416259e+002;9.856332e+001
4.435544e+002;9.856927e+001
4.454829e+002;9.859045e+001
4.474114e+002;9.857230e+001
4.493399e+002;9.856259e+001
4.512684e+002;9.856771e+001
4.531969e+002;9.855620e+001
4.551254e+002;9.859349e+001
4.570539e+002;9.860830e+001
4.589824e+002;9.857903e+001
4.609109e+002;9.855694e+001
4.628394e+002;9.858396e+001
4.647679e+002;9.859076e+001
4.666964e+002;9.859002e+001
4.686248e+002;9.859540e+001
4.705533e+002;9.858801e+001
4.724818e+002;9.858715e+001
4.744103e+002;9.860506e+001
4.763388e+002;9.859064e+001
4.782673e+002;9.859120e+001
4.801958e+002;9.859299e+001
4.821243e+002;9.860999e+001
4.840528e+002;9.862922e+001
4.859813e+002;9.864018e+001
4.879098e+002;9.864915e+001
4.898383e+002;9.864460e+001
4.917668e+002;9.863978e+001
4.936953e+002;9.863829e+001
4.956238e+002;9.863552e+001
4.975523e+002;9.865335e+001
4.994808e+002;9.866770e+001
5.014093e+002;9.866531e+001
5.033378e+002;9.866662e+001
5.052663e+002;9.868549e+001
5.071948e+002;9.869084e+001
5.091233e+002;9.869540e+001
5.110518e+002;9.870778e+001
5.129803e+002;9.872491e+001
5.149088e+002;9.871435e+001
5.168373e+002;9.870397e+001
5.187657e+002;9.869630e+001
5.206943e+002;9.871209e+001
5.226227e+002;9.871472e+001
5.245513e+002;9.870736e+001
5.264797e+002;9.869888e+001
5.284083e+002;9.870714e+001
5.303367e+002;9.871372e+001
5.322653e+002;9.871484e+001
5.341937e+002;9.870737e+001
5.361223e+002;9.870396e+001
5.380507e+002;9.870844e+001
5.399792e+002;9.871386e+001
5.419077e+002;9.871844e+001
5.438362e+002;9.872887e+001
5.457647e+002;9.873826e+001
5.476932e+002;9.872977e+001
5.496217e+002;9.872650e+001
5.515502e+002;9.873900e+001
5.534787e+002;9.874561e+001
5.554072e+002;9.875590e+001
5.573357e+002;9.875186e+001
5.592642e+002;9.874152e+001
5.611927e+002;9.873051e+001
5.631212e+002;9.872686e+001
5.650497e+002;9.872883e+001
5.669782e+002;9.873006e+001
5.689067e+002;9.874247e+001
5.708352e+002;9.875346e+001
5.727637e+002;9.875108e+001
5.746922e+002;9.875852e+001
5.766207e+002;9.876322e+001
5.785492e+002;9.876019e+001
5.804777e+002;9.875195e+001
5.824062e+002;9.875410e+001
5.843347e+002;9.876192e+001
5.862632e+002;9.876007e+001
5.881917e+002;9.875327e+001
5.901202e+002;9.876238e+001
5.920486e+002;9.876343e+001
5.939772e+002;9.875491e+001
5.959056e+002;9.875008e+001
5.978342e+002;9.875455e+001
5.997626e+002;9.875336e+001
6.016912e+002;9.876360e+001
6.036196e+002;9.877237e+001
6.055482e+002;9.877335e+001
6.074766e+002;9.876669e+001
6.094052e+002;9.876163e+001
6.113336e+002;9.875803e+001
6.132621e+002;9.875889e+001
6.151906e+002;9.876059e+001
6.171191e+002;9.876669e+001
6.190476e+002;9.876820e+001
6.209761e+002;9.876659e+001
6.229046e+002;9.876550e+001
6.248331e+002;9.877093e+001
6.267616e+002;9.876493e+001
6.286901e+002;9.876264e+001
6.306186e+002;9.877561e+001
6.325471e+002;9.878089e+001
6.344756e+002;9.876897e+001
6.364041e+002;9.876228e+001
6.383326e+002;9.876292e+001
6.402611e+002;9.876413e+001
6.421896e+002;9.876373e+001
6.441181e+002;9.876250e+001
6.460466e+002;9.875901e+001
6.479751e+002;9.875897e+001
6.499036e+002;9.876415e+001
6.518321e+002;9.877107e+001
6.537606e+002;9.876723e+001
6.556891e+002;9.876379e+001
6.576176e+002;9.876682e+001
6.595461e+002;9.877017e+001
6.614745e+002;9.876933e+001
6.634031e+002;9.877190e+001
6.653315e+002;9.877234e+001
6.672601e+002;9.877276e+001
6.691885e+002;9.877068e+001
6.711171e+002;9.877154e+001
6.730455e+002;9.876934e+001
6.749741e+002;9.876752e+001
6.769025e+002;9.877039e+001
6.788311e+002;9.877489e+001
6.807595e+002;9.877574e+001
6.826880e+002;9.877548e+001
6.846165e+002;9.877196e+001
6.865450e+002;9.877691e+001
6.884735e+002;9.878167e+001
6.904020e+002;9.878329e+001
6.923305e+002;9.878167e+001
6.942590e+002;9.878020e+001
6.961875e+002;9.877926e+001
6.981160e+002;9.877758e+001
7.000445e+002;9.877657e+001
7.019730e+002;9.878081e+001
7.039015e+002;9.878499e+001
7.058300e+002;9.879073e+001
7.077585e+002;9.879052e+001
7.096870e+002;9.878954e+001
7.116155e+002;9.878923e+001
7.135440e+002;9.878851e+001
7.154725e+002;9.878916e+001
7.174010e+002;9.878957e+001
7.193295e+002;9.879040e+001
7.212580e+002;9.879002e+001
7.231865e+002;9.878691e+001
7.251150e+002;9.878862e+001
7.270435e+002;9.879153e+001
7.289720e+002;9.879331e+001
7.309005e+002;9.879659e+001
7.328290e+002;9.879679e+001
7.347574e+002;9.879813e+001
7.366860e+002;9.879871e+001
7.386144e+002;9.879301e+001
7.405430e+002;9.879057e+001
7.424714e+002;9.879317e+001
7.444000e+002;9.879501e+001
7.463284e+002;9.879832e+001
7.482570e+002;9.880185e+001
7.501854e+002;9.880077e+001
7.521140e+002;9.879966e+001
7.540424e+002;9.879855e+001
7.559709e+002;9.879950e+001
7.578994e+002;9.879890e+001
7.598279e+002;9.879700e+001
7.617564e+002;9.879871e+001
7.636849e+002;9.880244e+001
7.656134e+002;9.880380e+001
7.675419e+002;9.880546e+001
7.694704e+002;9.880662e+001
7.713989e+002;9.880367e+001
7.733274e+002;9.880026e+001
7.752559e+002;9.880536e+001
7.771844e+002;9.880611e+001
7.791129e+002;9.880457e+001
7.810414e+002;9.880405e+001
7.829699e+002;9.880691e+001
7.848984e+002;9.880746e+001
7.868269e+002;9.880653e+001
7.887554e+002;9.880733e+001
7.906839e+002;9.880721e+001
7.926124e+002;9.880516e+001
7.945409e+002;9.880669e+001
7.964694e+002;9.880741e+001
7.983979e+002;9.880574e+001
8.003264e+002;9.880682e+001
8.022549e+002;9.880814e+001
8.041833e+002;9.880872e+001
8.061119e+002;9.880999e+001
8.080403e+002;9.880920e+001
8.099689e+002;9.880945e+001
8.118973e+002;9.881250e+001
8.138259e+002;9.881612e+001
8.157543e+002;9.881607e+001
8.176829e+002;9.881040e+001
8.196113e+002;9.880830e+001
8.215399e+002;9.881228e+001
8.234683e+002;9.881116e+001
8.253969e+002;9.880807e+001
8.273253e+002;9.881355e+001
8.292538e+002;9.881625e+001
8.311823e+002;9.881111e+001
8.331108e+002;9.880602e+001
8.350393e+002;9.880519e+001
8.369678e+002;9.880699e+001
8.388963e+002;9.880672e+001
8.408248e+002;9.880765e+001
8.427533e+002;9.880805e+001
8.446818e+002;9.881010e+001
8.466103e+002;9.881052e+001
8.485388e+002;9.880817e+001
8.504673e+002;9.880724e+001
8.523958e+002;9.880757e+001
8.543243e+002;9.880548e+001
8.562528e+002;9.880176e+001
8.581813e+002;9.880149e+001
8.601098e+002;9.880523e+001
8.620383e+002;9.880680e+001
8.639668e+002;9.880431e+001
8.658953e+002;9.880222e+001
8.678238e+002;9.880163e+001
8.697523e+002;9.880190e+001
8.716808e+002;9.880137e+001
8.736093e+002;9.879998e+001
8.755378e+002;9.880352e+001
8.774662e+002;9.880277e+001
8.793948e+002;9.879949e+001
8.813232e+002;9.880087e+001
8.832518e+002;9.880228e+001
8.851802e+002;9.880058e+001
8.871088e+002;9.880053e+001
8.890372e+002;9.879866e+001
8.909658e+002;9.879778e+001
8.928942e+002;9.879815e+001
8.948227e+002;9.879700e+001
8.967512e+002;9.879321e+001
8.986797e+002;9.879346e+001
9.006082e+002;9.879557e+001
9.025367e+002;9.879650e+001
9.044652e+002;9.879652e+001
9.063937e+002;9.879678e+001
9.083222e+002;9.879498e+001
9.102507e+002;9.879395e+001
9.121792e+002;9.879252e+001
9.141077e+002;9.879353e+001
9.160362e+002;9.879565e+001
9.179647e+002;9.879272e+001
9.198932e+002;9.879016e+001
9.218217e+002;9.879465e+001
9.237502e+002;9.879864e+001
9.256786e+002;9.879953e+001
9.276072e+002;9.879947e+001
9.295356e+002;9.879977e+001
9.314642e+002;9.879939e+001
9.333926e+002;9.879868e+001
9.353212e+002;9.879932e+001
9.372496e+002;9.879755e+001
9.391782e+002;9.879527e+001
9.411066e+002;9.879745e+001
9.430352e+002;9.879816e+001
9.449636e+002;9.879844e+001
9.468922e+002;9.879884e+001
9.488206e+002;9.879737e+001
9.507491e+002;9.879816e+001
9.526776e+002;9.880026e+001
9.546061e+002;9.880006e+001
9.565346e+002;9.879829e+001
9.584631e+002;9.879932e+001
9.603916e+002;9.880106e+001
9.623201e+002;9.880022e+001
9.642486e+002;9.880097e+001
9.661771e+002;9.880010e+001
9.681056e+002;9.880112e+001
9.700341e+002;9.880447e+001
9.719626e+002;9.880490e+001
9.738911e+002;9.880344e+001
9.758196e+002;9.880132e+001
9.777481e+002;9.880244e+001
9.796766e+002;9.880467e+001
9.816051e+002;9.880610e+001
9.835336e+002;9.880840e+001
9.854621e+002;9.880818e+001
9.873906e+002;9.880681e+001
9.893191e+002;9.880469e+001
9.912476e+002;9.880460e+001
9.931761e+002;9.880563e+001
9.951046e+002;9.880694e+001
9.970331e+002;9.880626e+001
9.989615e+002;9.880794e+001
1.000890e+003;9.880929e+001
1.002819e+003;9.880705e+001
1.004747e+003;9.880604e+001
1.006676e+003;9.880833e+001
1.008604e+003;9.880921e+001
1.010533e+003;9.881091e+001
1.012461e+003;9.881113e+001
1.014390e+003;9.880854e+001
1.016318e+003;9.880810e+001
1.018247e+003;9.880963e+001
1.020175e+003;9.880960e+001
1.022104e+003;9.881088e+001
1.024032e+003;9.881129e+001
1.025961e+003;9.881077e+001
1.027889e+003;9.881187e+001
1.029818e+003;9.881084e+001
1.031746e+003;9.880972e+001
1.033675e+003;9.881201e+001
1.035603e+003;9.881235e+001
1.037531e+003;9.881165e+001
1.039460e+003;9.881284e+001
1.041389e+003;9.881295e+001
1.043317e+003;9.881095e+001
1.045245e+003;9.881247e+001
1.047174e+003;9.881432e+001
1.049103e+003;9.881233e+001
1.051031e+003;9.880965e+001
1.052959e+003;9.880883e+001
1.054888e+003;9.880845e+001
1.056817e+003;9.880789e+001
1.058745e+003;9.880555e+001
1.060673e+003;9.880470e+001
1.062602e+003;9.880547e+001
1.064531e+003;9.880531e+001
1.066459e+003;9.880310e+001
1.068387e+003;9.880299e+001
1.070316e+003;9.880313e+001
1.072245e+003;9.880322e+001
1.074173e+003;9.880232e+001
1.076101e+003;9.880244e+001
1.078030e+003;9.880116e+001
1.079958e+003;9.880103e+001
1.081887e+003;9.880244e+001
1.083815e+003;9.880254e+001
1.085744e+003;9.880147e+001
1.087672e+003;9.880269e+001
1.089601e+003;9.880356e+001
1.091529e+003;9.880293e+001
1.093458e+003;9.880141e+001
1.095386e+003;9.880205e+001
1.097315e+003;9.880257e+001
1.099243e+003;9.880260e+001
1.101172e+003;9.880191e+001
1.103100e+003;9.880297e+001
1.105029e+003;9.880637e+001
1.106957e+003;9.880626e+001
1.108886e+003;9.880459e+001
1.110814e+003;9.880685e+001
1.112743e+003;9.880743e+001
1.114671e+003;9.880653e+001
1.116600e+003;9.880660e+001
1.118528e+003;9.880814e+001
1.120457e+003;9.880865e+001
1.122385e+003;9.880833e+001
1.124314e+003;9.880803e+001
1.126242e+003;9.880849e+001
1.128171e+003;9.880882e+001
1.130099e+003;9.880892e+001
1.132028e+003;9.880782e+001
1.133956e+003;9.880756e+001
1.135885e+003;9.880808e+001
1.137813e+003;9.880885e+001
1.139742e+003;9.880849e+001
1.141670e+003;9.880688e+001
1.143599e+003;9.880676e+001
1.145527e+003;9.880827e+001
1.147456e+003;9.880852e+001
1.149384e+003;9.880795e+001
1.151313e+003;9.880799e+001
1.153241e+003;9.880970e+001
1.155170e+003;9.881032e+001
1.157098e+003;9.880994e+001
1.159027e+003;9.880890e+001
1.160955e+003;9.880856e+001
1.162884e+003;9.880920e+001
1.164812e+003;9.881039e+001
1.166741e+003;9.880992e+001
1.168669e+003;9.880830e+001
1.170598e+003;9.880888e+001
1.172526e+003;9.881065e+001
1.174455e+003;9.881037e+001
1.176383e+003;9.881018e+001
1.178312e+003;9.880988e+001
1.180240e+003;9.881083e+001
1.182169e+003;9.881039e+001
1.184097e+003;9.881113e+001
1.186026e+003;9.881220e+001
1.187954e+003;9.881345e+001
1.189883e+003;9.881450e+001
1.191811e+003;9.881421e+001
1.193740e+003;9.881340e+001
1.195668e+003;9.881389e+001
1.197597e+003;9.881374e+001
1.199525e+003;9.881396e+001
1.201454e+003;9.881386e+001
1.203382e+003;9.881522e+001
1.205311e+003;9.881548e+001
1.207239e+003;9.881593e+001
1.209168e+003;9.881669e+001
1.211096e+003;9.881725e+001
1.213025e+003;9.881709e+001
1.214953e+003;9.881786e+001
1.216882e+003;9.881847e+001
1.218810e+003;9.881818e+001
1.220739e+003;9.881779e+001
1.222667e+003;9.881901e+001
1.224596e+003;9.882050e+001
1.226524e+003;9.882030e+001
1.228453e+003;9.882033e+001
1.230381e+003;9.882114e+001
1.232310e+003;9.882233e+001
1.234238e+003;9.882423e+001
1.236167e+003;9.882368e+001
1.238095e+003;9.882301e+001
1.240024e+003;9.882312e+001
1.241952e+003;9.882446e+001
1.243881e+003;9.882529e+001
1.245809e+003;9.882596e+001
1.247738e+003;9.882557e+001
1.249666e+003;9.882579e+001
1.251595e+003;9.882734e+001
1.253523e+003;9.882800e+001
1.255452e+003;9.882741e+001
1.257380e+003;9.882760e+001
1.259309e+003;9.882751e+001
1.261237e+003;9.882809e+001
1.263166e+003;9.882821e+001
1.265094e+003;9.882914e+001
1.267023e+003;9.882971e+001
1.268951e+003;9.882993e+001
1.270880e+003;9.883024e+001
1.272808e+003;9.883155e+001
1.274737e+003;9.883228e+001
1.276665e+003;9.883142e+001
1.278594e+003;9.883186e+001
1.280522e+003;9.883186e+001
1.282451e+003;9.883185e+001
1.284379e+003;9.883338e+001
1.286308e+003;9.883296e+001
1.288236e+003;9.883279e+001
1.290165e+003;9.883267e+001
1.292093e+003;9.883311e+001
1.294022e+003;9.883367e+001
1.295950e+003;9.883393e+001
1.297879e+003;9.883367e+001
1.299807e+003;9.883282e+001
1.301736e+003;9.883243e+001
1.303664e+003;9.883309e+001
1.305593e+003;9.883462e+001
1.307521e+003;9.883498e+001
1.309450e+003;9.883362e+001
1.311378e+003;9.883336e+001
1.313307e+003;9.883392e+001
1.315235e+003;9.883536e+001
1.317164e+003;9.883531e+001
1.319092e+003;9.883412e+001
1.321021e+003;9.883359e+001
1.322949e+003;9.883385e+001
1.324878e+003;9.883463e+001
1.326806e+003;9.883484e+001
1.328735e+003;9.883517e+001
1.330663e+003;9.883547e+001
1.332592e+003;9.883465e+001
1.334520e+003;9.883383e+001
1.336449e+003;9.883355e+001
1.338377e+003;9.883386e+001
1.340306e+003;9.883378e+001
1.342234e+003;9.883292e+001
1.344163e+003;9.883302e+001
1.346091e+003;9.883356e+001
1.348020e+003;9.883343e+001
1.349948e+003;9.883356e+001
1.351877e+003;9.883372e+001
1.353805e+003;9.883360e+001
1.355734e+003;9.883272e+001
1.357662e+003;9.883291e+001
1.359591e+003;9.883315e+001
1.361519e+003;9.883385e+001
1.363448e+003;9.883305e+001
1.365376e+003;9.883315e+001
1.367305e+003;9.883327e+001
1.369233e+003;9.883286e+001
1.371161e+003;9.883305e+001
1.373090e+003;9.883368e+001
1.375019e+003;9.883263e+001
1.376947e+003;9.883347e+001
1.378875e+003;9.883345e+001
1.380804e+003;9.883218e+001
1.382733e+003;9.883105e+001
1.384661e+003;9.883056e+001
1.386589e+003;9.883134e+001
1.388518e+003;9.883192e+001
1.390447e+003;9.883206e+001
1.392375e+003;9.883207e+001
1.394303e+003;9.883044e+001
1.396232e+003;9.882982e+001
1.398161e+003;9.882855e+001
1.400089e+003;9.882782e+001
1.402017e+003;9.882751e+001
1.403946e+003;9.882759e+001
1.405875e+003;9.882777e+001
1.407803e+003;9.882791e+001
1.409731e+003;9.882828e+001
1.411660e+003;9.882897e+001
1.413589e+003;9.882829e+001
1.415517e+003;9.882813e+001
1.417445e+003;9.882733e+001
1.419374e+003;9.882596e+001
1.421302e+003;9.882626e+001
1.423231e+003;9.882675e+001
1.425159e+003;9.882631e+001
1.427088e+003;9.882633e+001
1.429016e+003;9.882568e+001
1.430945e+003;9.882596e+001
1.432873e+003;9.882691e+001
1.434802e+003;9.882761e+001
1.436730e+003;9.882702e+001
1.438659e+003;9.882740e+001
1.440587e+003;9.882755e+001
1.442516e+003;9.882808e+001
1.444444e+003;9.882825e+001
1.446373e+003;9.882777e+001
1.448301e+003;9.882674e+001
1.450230e+003;9.882681e+001
1.452158e+003;9.882605e+001
1.454087e+003;9.882597e+001
1.456015e+003;9.882539e+001
1.457944e+003;9.882641e+001
1.459872e+003;9.882823e+001
1.461801e+003;9.882936e+001
1.463729e+003;9.882883e+001
1.465658e+003;9.882918e+001
1.467586e+003;9.882909e+001
1.469515e+003;9.882819e+001
1.471443e+003;9.882780e+001
1.473372e+003;9.882927e+001
1.475300e+003;9.882990e+001
1.477229e+003;9.883060e+001
1.479157e+003;9.883163e+001
1.481086e+003;9.883203e+001
1.483014e+003;9.883164e+001
1.484943e+003;9.883221e+001
1.486871e+003;9.883212e+001
1.488800e+003;9.883240e+001
1.490728e+003;9.883269e+001
1.492657e+003;9.883484e+001
1.494585e+003;9.883463e+001
1.496514e+003;9.883266e+001
1.498442e+003;9.883231e+001
1.500371e+003;9.883334e+001
1.502299e+003;9.883446e+001
1.504228e+003;9.883318e+001
1.506156e+003;9.883121e+001
1.508085e+003;9.883275e+001
1.510013e+003;9.883473e+001
1.511942e+003;9.883606e+001
1.513870e+003;9.883684e+001
1.515799e+003;9.883699e+001
1.517727e+003;9.883669e+001
1.519656e+003;9.883533e+001
1.521584e+003;9.883398e+001
1.523513e+003;9.883575e+001
1.525441e+003;9.883636e+001
1.527370e+003;9.883752e+001
1.529298e+003;9.883859e+001
1.531227e+003;9.883855e+001
1.533155e+003;9.883748e+001
1.535084e+003;9.883797e+001
1.537012e+003;9.883684e+001
1.538941e+003;9.883485e+001
1.540869e+003;9.883430e+001
1.542798e+003;9.883590e+001
1.544726e+003;9.883634e+001
1.546655e+003;9.883640e+001
1.548583e+003;9.883665e+001
1.550512e+003;9.883699e+001
1.552440e+003;9.883705e+001
1.554369e+003;9.883731e+001
1.556297e+003;9.883612e+001
1.558226e+003;9.883352e+001
1.560154e+003;9.883366e+001
1.562083e+003;9.883694e+001
1.564011e+003;9.883768e+001
1.565940e+003;9.883748e+001
1.567868e+003;9.883634e+001
1.569797e+003;9.883586e+001
1.571725e+003;9.883588e+001
1.573654e+003;9.883582e+001
1.575582e+003;9.883569e+001
1.577511e+003;9.883620e+001
1.579439e+003;9.883636e+001
1.581368e+003;9.883730e+001
1.583296e+003;9.883665e+001
1.585225e+003;9.883533e+001
1.587153e+003;9.883459e+001
1.589082e+003;9.883517e+001
1.591010e+003;9.883559e+001
1.592939e+003;9.883628e+001
1.594867e+003;9.883638e+001
1.596796e+003;9.883553e+001
1.598724e+003;9.883444e+001
1.600653e+003;9.883356e+001
1.602581e+003;9.883376e+001
1.604510e+003;9.883448e+001
1.606438e+003;9.883353e+001
1.608367e+003;9.883276e+001
1.610295e+003;9.883303e+001
1.612224e+003;9.883377e+001
1.614152e+003;9.883269e+001
1.616081e+003;9.883012e+001
1.618009e+003;9.882972e+001
1.619938e+003;9.883135e+001
1.621866e+003;9.883088e+001
1.623795e+003;9.883040e+001
1.625723e+003;9.883068e+001
1.627652e+003;9.883118e+001
1.629580e+003;9.883069e+001
1.631509e+003;9.883052e+001
1.633437e+003;9.882961e+001
1.635366e+003;9.882859e+001
1.637294e+003;9.882951e+001
1.639223e+003;9.883024e+001
1.641151e+003;9.882899e+001
1.643080e+003;9.882906e+001
1.645008e+003;9.882809e+001
1.646937e+003;9.882773e+001
1.648865e+003;9.882847e+001
1.650794e+003;9.882690e+001
1.652722e+003;9.882400e+001
1.654651e+003;9.882635e+001
1.656579e+003;9.882871e+001
1.658508e+003;9.882839e+001
1.660436e+003;9.882735e+001
1.662365e+003;9.882776e+001
1.664293e+003;9.882916e+001
1.666222e+003;9.882925e+001
1.668150e+003;9.882613e+001
1.670079e+003;9.882611e+001
1.672007e+003;9.882744e+001
1.673936e+003;9.882738e+001
1.675864e+003;9.882604e+001
1.677793e+003;9.882632e+001
1.679721e+003;9.882689e+001
1.681650e+003;9.882756e+001
1.683578e+003;9.882681e+001
1.685507e+003;9.882775e+001
1.687435e+003;9.882866e+001
1.689364e+003;9.882872e+001
1.691292e+003;9.882953e+001
1.693221e+003;9.882904e+001
1.695149e+003;9.882646e+001
1.697078e+003;9.882681e+001
1.699006e+003;9.882699e+001
1.700935e+003;9.882706e+001
1.702863e+003;9.882899e+001
1.704792e+003;9.882988e+001
1.706720e+003;9.883012e+001
1.708649e+003;9.883060e+001
1.710577e+003;9.883118e+001
1.712505e+003;9.883179e+001
1.714434e+003;9.883059e+001
1.716363e+003;9.882887e+001
1.718291e+003;9.882888e+001
1.720219e+003;9.883040e+001
1.722148e+003;9.883093e+001
1.724077e+003;9.883156e+001
1.726005e+003;9.883154e+001
1.727933e+003;9.883147e+001
1.729862e+003;9.883086e+001
1.731791e+003;9.883022e+001
1.733719e+003;9.882957e+001
1.735647e+003;9.883183e+001
1.737576e+003;9.883267e+001
1.739505e+003;9.883157e+001
1.741433e+003;9.883247e+001
1.743361e+003;9.883495e+001
1.745290e+003;9.883490e+001
1.747219e+003;9.883505e+001
1.749147e+003;9.883484e+001
1.751075e+003;9.883480e+001
1.753004e+003;9.883468e+001
1.754932e+003;9.883432e+001
1.756861e+003;9.883405e+001
1.758789e+003;9.883439e+001
1.760718e+003;9.883446e+001
1.762646e+003;9.883449e+001
1.764575e+003;9.883447e+001
1.766503e+003;9.883406e+001
1.768432e+003;9.883275e+001
1.770360e+003;9.883311e+001
1.772289e+003;9.883263e+001
1.774217e+003;9.883321e+001
1.776146e+003;9.883409e+001
1.778074e+003;9.883462e+001
1.780003e+003;9.883395e+001
1.781931e+003;9.883407e+001
1.783860e+003;9.883386e+001
1.785788e+003;9.883450e+001
1.787717e+003;9.883485e+001
1.789645e+003;9.883468e+001
1.791574e+003;9.883312e+001
1.793502e+003;9.883316e+001
1.795431e+003;9.883380e+001
1.797359e+003;9.883440e+001
1.799288e+003;9.883400e+001
1.801216e+003;9.883383e+001
1.803145e+003;9.883332e+001
1.805073e+003;9.883335e+001
1.807002e+003;9.883385e+001
1.808930e+003;9.883414e+001
1.810859e+003;9.883372e+001
1.812787e+003;9.883465e+001
1.814716e+003;9.883527e+001
1.816644e+003;9.883462e+001
1.818573e+003;9.883290e+001
1.820501e+003;9.883278e+001
1.822430e+003;9.883288e+001
1.824358e+003;9.883218e+001
1.826287e+003;9.883203e+001
1.828215e+003;9.883216e+001
1.830144e+003;9.883345e+001
1.832072e+003;9.883421e+001
1.834001e+003;9.883256e+001
1.835929e+003;9.883168e+001
1.837858e+003;9.883199e+001
1.839786e+003;9.883343e+001
1.841715e+003;9.883245e+001
1.843643e+003;9.883062e+001
1.845572e+003;9.882989e+001
1.847500e+003;9.883048e+001
1.849429e+003;9.883135e+001
1.851357e+003;9.883160e+001
1.853286e+003;9.883036e+001
1.855214e+003;9.883057e+001
1.857143e+003;9.883096e+001
1.859071e+003;9.883076e+001
1.861000e+003;9.883042e+001
1.862928e+003;9.883099e+001
1.864857e+003;9.883084e+001
1.866785e+003;9.883018e+001
1.868714e+003;9.882974e+001
1.870642e+003;9.883039e+001
1.872571e+003;9.883083e+001
1.874499e+003;9.883094e+001
1.876428e+003;9.883133e+001
1.878356e+003;9.883041e+001
1.880285e+003;9.882956e+001
1.882213e+003;9.883070e+001
1.884142e+003;9.883121e+001
1.886070e+003;9.883129e+001
1.887999e+003;9.883073e+001
1.889927e+003;9.883051e+001
1.891856e+003;9.883052e+001
1.893784e+003;9.883077e+001
1.895713e+003;9.883027e+001
1.897641e+003;9.883053e+001
1.899570e+003;9.883058e+001
1.901498e+003;9.883045e+001
1.903427e+003;9.883078e+001
1.905355e+003;9.883112e+001
1.907284e+003;9.883022e+001
1.909212e+003;9.883086e+001
1.911141e+003;9.883157e+001
1.913069e+003;9.883190e+001
1.914998e+003;9.883154e+001
1.916926e+003;9.883138e+001
1.918855e+003;9.883178e+001
1.920783e+003;9.883266e+001
1.922712e+003;9.883198e+001
1.924640e+003;9.883225e+001
1.926569e+003;9.883303e+001
1.928497e+003;9.883263e+001
1.930426e+003;9.883191e+001
1.932354e+003;9.883224e+001
1.934283e+003;9.883247e+001
1.936211e+003;9.883331e+001
1.938140e+003;9.883345e+001
1.940068e+003;9.883302e+001
1.941997e+003;9.883259e+001
1.943925e+003;9.883331e+001
1.945854e+003;9.883317e+001
1.947782e+003;9.883340e+001
1.949711e+003;9.883331e+001
1.951639e+003;9.883380e+001
1.953568e+003;9.883360e+001
1.955496e+003;9.883268e+001
1.957425e+003;9.883142e+001
1.959353e+003;9.883160e+001
1.961282e+003;9.883190e+001
1.963210e+003;9.883274e+001
1.965139e+003;9.883215e+001
1.967067e+003;9.883160e+001
1.968996e+003;9.883173e+001
1.970924e+003;9.883225e+001
1.972853e+003;9.883155e+001
1.974781e+003;9.883067e+001
1.976710e+003;9.883112e+001
1.978638e+003;9.883143e+001
1.980567e+003;9.883012e+001
1.982495e+003;9.882987e+001
1.984424e+003;9.883006e+001
1.986352e+003;9.882979e+001
1.988281e+003;9.882888e+001
1.990209e+003;9.882813e+001
1.992138e+003;9.882730e+001
1.994066e+003;9.882790e+001
1.995995e+003;9.882838e+001
1.997923e+003;9.882816e+001
1.999852e+003;9.882739e+001
2.001780e+003;9.882776e+001
2.003709e+003;9.882722e+001
2.005637e+003;9.882658e+001
2.007566e+003;9.882662e+001
2.009494e+003;9.882694e+001
2.011423e+003;9.882586e+001
2.013351e+003;9.882596e+001
2.015280e+003;9.882613e+001
2.017208e+003;9.882580e+001
2.019137e+003;9.882548e+001
2.021065e+003;9.882579e+001
2.022994e+003;9.882508e+001
2.024922e+003;9.882542e+001
2.026851e+003;9.882498e+001
2.028779e+003;9.882500e+001
2.030708e+003;9.882506e+001
2.032636e+003;9.882459e+001
2.034565e+003;9.882417e+001
2.036493e+003;9.882466e+001
2.038422e+003;9.882438e+001
2.040350e+003;9.882450e+001
2.042279e+003;9.882442e+001
2.044207e+003;9.882435e+001
2.046135e+003;9.882394e+001
2.048064e+003;9.882435e+001
2.049992e+003;9.882427e+001
2.051921e+003;9.882435e+001
2.053850e+003;9.882385e+001
2.055778e+003;9.882446e+001
2.057707e+003;9.882476e+001
2.059635e+003;9.882403e+001
2.061563e+003;9.882272e+001
2.063492e+003;9.882310e+001
2.065420e+003;9.882400e+001
2.067349e+003;9.882421e+001
2.069278e+003;9.882414e+001
2.071206e+003;9.882450e+001
2.073135e+003;9.882435e+001
2.075063e+003;9.882520e+001
2.076991e+003;9.882554e+001
2.078920e+003;9.882530e+001
2.080848e+003;9.882488e+001
2.082777e+003;9.882521e+001
2.084706e+003;9.882424e+001
2.086634e+003;9.882371e+001
2.088563e+003;9.882359e+001
2.090491e+003;9.882431e+001
2.092419e+003;9.882389e+001
2.094348e+003;9.882382e+001
2.096276e+003;9.882340e+001
2.098205e+003;9.882369e+001
2.100134e+003;9.882443e+001
2.102062e+003;9.882499e+001
2.103990e+003;9.882406e+001
2.105919e+003;9.882491e+001
2.107847e+003;9.882542e+001
2.109776e+003;9.882586e+001
2.111704e+003;9.882654e+001
2.113633e+003;9.882697e+001
2.115562e+003;9.882650e+001
2.117490e+003;9.882740e+001
2.119418e+003;9.882720e+001
2.121347e+003;9.882613e+001
2.123275e+003;9.882631e+001
2.125204e+003;9.882721e+001
2.127132e+003;9.882684e+001
2.129061e+003;9.882704e+001
2.130990e+003;9.882769e+001
2.132918e+003;9.882809e+001
2.134846e+003;9.882859e+001
2.136775e+003;9.882909e+001
2.138703e+003;9.882889e+001
2.140632e+003;9.882859e+001
2.142560e+003;9.882756e+001
2.144489e+003;9.882778e+001
2.146417e+003;9.882811e+001
2.148346e+003;9.882909e+001
2.150274e+003;9.882867e+001
2.152203e+003;9.882844e+001
2.154131e+003;9.882811e+001
2.156060e+003;9.882841e+001
2.157988e+003;9.882906e+001
2.159917e+003;9.883003e+001
2.161845e+003;9.882939e+001
2.163774e+003;9.882931e+001
2.165702e+003;9.882954e+001
2.167631e+003;9.883076e+001
2.169559e+003;9.883057e+001
2.171488e+003;9.882993e+001
2.173416e+003;9.882927e+001
2.175345e+003;9.882958e+001
2.177273e+003;9.882967e+001
2.179202e+003;9.882965e+001
2.181130e+003;9.882944e+001
2.183059e+003;9.882961e+001
2.184987e+003;9.882851e+001
2.186916e+003;9.882835e+001
2.188844e+003;9.882826e+001
2.190773e+003;9.882880e+001
2.192701e+003;9.882903e+001
2.194630e+003;9.882951e+001
2.196558e+003;9.882873e+001
2.198487e+003;9.882745e+001
2.200415e+003;9.882725e+001
2.202344e+003;9.882742e+001
2.204272e+003;9.882645e+001
2.206201e+003;9.882687e+001
2.208129e+003;9.882677e+001
2.210058e+003;9.882675e+001
2.211986e+003;9.882601e+001
2.213915e+003;9.882656e+001
2.215843e+003;9.882646e+001
2.217772e+003;9.882582e+001
2.219700e+003;9.882547e+001
2.221629e+003;9.882516e+001
2.223557e+003;9.882491e+001
2.225486e+003;9.882537e+001
2.227414e+003;9.882491e+001
2.229343e+003;9.882452e+001
2.231271e+003;9.882432e+001
2.233200e+003;9.882452e+001
2.235128e+003;9.882380e+001
2.237057e+003;9.882346e+001
2.238985e+003;9.882435e+001
2.240914e+003;9.882421e+001
2.242842e+003;9.882220e+001
2.244771e+003;9.882185e+001
2.246699e+003;9.882287e+001
2.248628e+003;9.882394e+001
2.250556e+003;9.882389e+001
2.252485e+003;9.882370e+001
2.254413e+003;9.882310e+001
2.256342e+003;9.882249e+001
2.258270e+003;9.882213e+001
2.260199e+003;9.882211e+001
2.262127e+003;9.882126e+001
2.264056e+003;9.882185e+001
2.265984e+003;9.882216e+001
2.267913e+003;9.882275e+001
2.269841e+003;9.882230e+001
2.271770e+003;9.882225e+001
2.273698e+003;9.882209e+001
2.275627e+003;9.882236e+001
2.277555e+003;9.882272e+001
2.279484e+003;9.882285e+001
2.281412e+003;9.882198e+001
2.283341e+003;9.882157e+001
2.285269e+003;9.882153e+001
2.287198e+003;9.882225e+001
2.289126e+003;9.882270e+001
2.291055e+003;9.882284e+001
2.292983e+003;9.882234e+001
2.294912e+003;9.882244e+001
2.296840e+003;9.882169e+001
2.298769e+003;9.882144e+001
2.300697e+003;9.882182e+001
2.302626e+003;9.882195e+001
2.304554e+003;9.882135e+001
2.306483e+003;9.882214e+001
2.308411e+003;9.882238e+001
2.310340e+003;9.882277e+001
2.312268e+003;9.882279e+001
2.314197e+003;9.882327e+001
2.316125e+003;9.882281e+001
2.318054e+003;9.882294e+001
2.319982e+003;9.882275e+001
2.321911e+003;9.882309e+001
2.323839e+003;9.882285e+001
2.325768e+003;9.882307e+001
2.327696e+003;9.882313e+001
2.329625e+003;9.882372e+001
2.331553e+003;9.882391e+001
2.333482e+003;9.882378e+001
2.335410e+003;9.882327e+001
2.337339e+003;9.882349e+001
2.339267e+003;9.882263e+001
2.341196e+003;9.882321e+001
2.343124e+003;9.882393e+001
2.345053e+003;9.882529e+001
2.346981e+003;9.882569e+001
2.348910e+003;9.882613e+001
2.350838e+003;9.882651e+001
2.352767e+003;9.882645e+001
2.354695e+003;9.882627e+001
2.356624e+003;9.882615e+001
2.358552e+003;9.882402e+001
2.360481e+003;9.882442e+001
2.362409e+003;9.882549e+001
2.364338e+003;9.882580e+001
2.366266e+003;9.882607e+001
2.368195e+003;9.882696e+001
2.370123e+003;9.882701e+001
2.372052e+003;9.882754e+001
2.373980e+003;9.882778e+001
2.375908e+003;9.882768e+001
2.377837e+003;9.882776e+001
2.379766e+003;9.882816e+001
2.381694e+003;9.882802e+001
2.383623e+003;9.882830e+001
2.385551e+003;9.882841e+001
2.387479e+003;9.882889e+001
2.389408e+003;9.882903e+001
2.391336e+003;9.882923e+001
2.393265e+003;9.882887e+001
2.395194e+003;9.882893e+001
2.397122e+003;9.882861e+001
2.399051e+003;9.882889e+001
2.400979e+003;9.882893e+001
2.402907e+003;9.882877e+001
2.404836e+003;9.882886e+001
2.406764e+003;9.883001e+001
2.408693e+003;9.882962e+001
2.410622e+003;9.882901e+001
2.412550e+003;9.882776e+001
2.414479e+003;9.882701e+001
2.416407e+003;9.882727e+001
2.418335e+003;9.882810e+001
2.420264e+003;9.882772e+001
2.422192e+003;9.882833e+001
2.424121e+003;9.882799e+001
2.426050e+003;9.882723e+001
2.427978e+003;9.882692e+001
2.429906e+003;9.882786e+001
2.431835e+003;9.882749e+001
2.433763e+003;9.882708e+001
2.435692e+003;9.882686e+001
2.437620e+003;9.882648e+001
2.439549e+003;9.882566e+001
2.441478e+003;9.882610e+001
2.443406e+003;9.882576e+001
2.445334e+003;9.882563e+001
2.447263e+003;9.882574e+001
2.449191e+003;9.882689e+001
2.451120e+003;9.882581e+001
2.453048e+003;9.882524e+001
2.454977e+003;9.882630e+001
2.456906e+003;9.882652e+001
2.458834e+003;9.882443e+001
2.460762e+003;9.882442e+001
2.462691e+003;9.882521e+001
2.464619e+003;9.882566e+001
2.466548e+003;9.882430e+001
2.468476e+003;9.882346e+001
2.470405e+003;9.882341e+001
2.472333e+003;9.882395e+001
2.474262e+003;9.882373e+001
2.476190e+003;9.882327e+001
2.478119e+003;9.882286e+001
2.480047e+003;9.882298e+001
2.481976e+003;9.882285e+001
2.483904e+003;9.882372e+001
2.485833e+003;9.882396e+001
2.487761e+003;9.882352e+001
2.489690e+003;9.882283e+001
2.491618e+003;9.882205e+001
2.493547e+003;9.882113e+001
2.495475e+003;9.882259e+001
2.497404e+003;9.882320e+001
2.499332e+003;9.882311e+001
2.501261e+003;9.882248e+001
2.503189e+003;9.882310e+001
2.505118e+003;9.882301e+001
2.507046e+003;9.882321e+001
2.508975e+003;9.882187e+001
2.510903e+003;9.882150e+001
2.512832e+003;9.882163e+001
2.514760e+003;9.882232e+001
2.516689e+003;9.882331e+001
2.518617e+003;9.882391e+001
2.520546e+003;9.882223e+001
2.522474e+003;9.882174e+001
2.524403e+003;9.882208e+001
2.526331e+003;9.882216e+001
2.528260e+003;9.882125e+001
2.530188e+003;9.882172e+001
2.532117e+003;9.882243e+001
2.534045e+003;9.882329e+001
2.535974e+003;9.882303e+001
2.537902e+003;9.882255e+001
2.539831e+003;9.882197e+001
2.541759e+003;9.882225e+001
2.543688e+003;9.882253e+001
2.545616e+003;9.882268e+001
2.547545e+003;9.882261e+001
2.549473e+003;9.882346e+001
2.551402e+003;9.882368e+001
2.553330e+003;9.882377e+001
2.555259e+003;9.882420e+001
2.557187e+003;9.882486e+001
2.559116e+003;9.882385e+001
2.561044e+003;9.882328e+001
2.562973e+003;9.882358e+001
2.564901e+003;9.882443e+001
2.566830e+003;9.882469e+001
2.568758e+003;9.882536e+001
2.570687e+003;9.882536e+001
2.572615e+003;9.882580e+001
2.574544e+003;9.882627e+001
2.576472e+003;9.882607e+001
2.578401e+003;9.882624e+001
2.580329e+003;9.882682e+001
2.582258e+003;9.882599e+001
2.584186e+003;9.882619e+001
2.586115e+003;9.882733e+001
2.588043e+003;9.882909e+001
2.589972e+003;9.882887e+001
2.591900e+003;9.882835e+001
2.593829e+003;9.882697e+001
2.595757e+003;9.882706e+001
2.597686e+003;9.882832e+001
2.599614e+003;9.882908e+001
2.601543e+003;9.882822e+001
2.603471e+003;9.882819e+001
2.605400e+003;9.882810e+001
2.607328e+003;9.882859e+001
2.609257e+003;9.882882e+001
2.611185e+003;9.882912e+001
2.613114e+003;9.882907e+001
2.615042e+003;9.882971e+001
2.616971e+003;9.882878e+001
2.618899e+003;9.882787e+001
2.620828e+003;9.882751e+001
2.622756e+003;9.882918e+001
2.624685e+003;9.882919e+001
2.626613e+003;9.882790e+001
2.628542e+003;9.882713e+001
2.630470e+003;9.882762e+001
2.632399e+003;9.882753e+001
2.634327e+003;9.882849e+001
2.636256e+003;9.882826e+001
2.638184e+003;9.882725e+001
2.640113e+003;9.882631e+001
2.642041e+003;9.882732e+001
2.643970e+003;9.882838e+001
2.645898e+003;9.882876e+001
2.647827e+003;9.882786e+001
2.649755e+003;9.882748e+001
2.651684e+003;9.882762e+001
2.653612e+003;9.882768e+001
2.655541e+003;9.882597e+001
2.657469e+003;9.882716e+001
2.659398e+003;9.882769e+001
2.661326e+003;9.882653e+001
2.663255e+003;9.882595e+001
2.665183e+003;9.882587e+001
2.667112e+003;9.882590e+001
2.669040e+003;9.882635e+001
2.670969e+003;9.882610e+001
2.672897e+003;9.882555e+001
2.674826e+003;9.882447e+001
2.676754e+003;9.882566e+001
2.678683e+003;9.882565e+001
2.680611e+003;9.882442e+001
2.682540e+003;9.882456e+001
2.684468e+003;9.882500e+001
2.686397e+003;9.882462e+001
2.688325e+003;9.882427e+001
2.690254e+003;9.882307e+001
2.692182e+003;9.882339e+001
2.694111e+003;9.882351e+001
2.696039e+003;9.882378e+001
2.697968e+003;9.882338e+001
2.699896e+003;9.882356e+001
2.701825e+003;9.882391e+001
2.703753e+003;9.882464e+001
2.705682e+003;9.882386e+001
2.707610e+003;9.882296e+001
2.709539e+003;9.882244e+001
2.711467e+003;9.882329e+001
2.713396e+003;9.882385e+001
2.715324e+003;9.882422e+001
2.717253e+003;9.882326e+001
2.719181e+003;9.882210e+001
2.721110e+003;9.882209e+001
2.723038e+003;9.882242e+001
2.724967e+003;9.882185e+001
2.726895e+003;9.882348e+001
2.728823e+003;9.882378e+001
2.730752e+003;9.882278e+001
2.732681e+003;9.882204e+001
2.734609e+003;9.882246e+001
2.736538e+003;9.882199e+001
2.738466e+003;9.882161e+001
2.740395e+003;9.882161e+001
2.742323e+003;9.882274e+001
2.744251e+003;9.882326e+001
2.746180e+003;9.882249e+001
2.748109e+003;9.882130e+001
2.750037e+003;9.882291e+001
2.751966e+003;9.882302e+001
2.753894e+003;9.882219e+001
2.755823e+003;9.882225e+001
2.757751e+003;9.882233e+001
2.759679e+003;9.882224e+001
2.761608e+003;9.882299e+001
2.763537e+003;9.882285e+001
2.765465e+003;9.882302e+001
2.767394e+003;9.882328e+001
2.769322e+003;9.882361e+001
2.771250e+003;9.882275e+001
2.773179e+003;9.882354e+001
2.775107e+003;9.882423e+001
2.777036e+003;9.882491e+001
2.778965e+003;9.882439e+001
2.780893e+003;9.882431e+001
2.782822e+003;9.882394e+001
2.784750e+003;9.882389e+001
2.786678e+003;9.882372e+001
2.788607e+003;9.882449e+001
2.790535e+003;9.882404e+001
2.792464e+003;9.882372e+001
2.794393e+003;9.882422e+001
2.796321e+003;9.882606e+001
2.798250e+003;9.882664e+001
2.800178e+003;9.882590e+001
2.802106e+003;9.882384e+001
2.804035e+003;9.882486e+001
2.805963e+003;9.882607e+001
2.807892e+003;9.882555e+001
2.809821e+003;9.882594e+001
2.811749e+003;9.882803e+001
2.813677e+003;9.882815e+001
2.815606e+003;9.882711e+001
2.817534e+003;9.882678e+001
2.819463e+003;9.882713e+001
2.821391e+003;9.882675e+001
2.823320e+003;9.882780e+001
2.825249e+003;9.882795e+001
2.827177e+003;9.882767e+001
2.829105e+003;9.882792e+001
2.831034e+003;9.882847e+001
2.832962e+003;9.882714e+001
2.834891e+003;9.882650e+001
2.836819e+003;9.882610e+001
2.838748e+003;9.882583e+001
2.840677e+003;9.882535e+001
2.842605e+003;9.882536e+001
2.844533e+003;9.882574e+001
2.846462e+003;9.882751e+001
2.848390e+003;9.882693e+001
2.850319e+003;9.882615e+001
2.852247e+003;9.882454e+001
2.854176e+003;9.882506e+001
2.856104e+003;9.882585e+001
2.858033e+003;9.882611e+001
2.859961e+003;9.882628e+001
2.861890e+003;9.882587e+001
2.863818e+003;9.882429e+001
2.865747e+003;9.882519e+001
2.867675e+003;9.882621e+001
2.869604e+003;9.882661e+001
2.871532e+003;9.882610e+001
2.873461e+003;9.882587e+001
2.875389e+003;9.882449e+001
2.877318e+003;9.882404e+001
2.879246e+003;9.882409e+001
2.881175e+003;9.882486e+001
2.883103e+003;9.882615e+001
2.885032e+003;9.882584e+001
2.886960e+003;9.882521e+001
2.888889e+003;9.882616e+001
2.890817e+003;9.882463e+001
2.892746e+003;9.882452e+001
2.894674e+003;9.882469e+001
2.896603e+003;9.882380e+001
2.898531e+003;9.882299e+001
2.900460e+003;9.882465e+001
2.902388e+003;9.882438e+001
2.904317e+003;9.882344e+001
2.906245e+003;9.882364e+001
2.908174e+003;9.882277e+001
2.910102e+003;9.882187e+001
2.912031e+003;9.882286e+001
2.913959e+003;9.882317e+001
2.915888e+003;9.882307e+001
2.917816e+003;9.882325e+001
2.919745e+003;9.882331e+001
2.921673e+003;9.882202e+001
2.923602e+003;9.882204e+001
2.925530e+003;9.882185e+001
2.927459e+003;9.882237e+001
2.929387e+003;9.882229e+001
2.931316e+003;9.882367e+001
2.933244e+003;9.882330e+001
2.935173e+003;9.882239e+001
2.937101e+003;9.882209e+001
2.939030e+003;9.882325e+001
2.940958e+003;9.882320e+001
2.942887e+003;9.882176e+001
2.944815e+003;9.882101e+001
2.946744e+003;9.882117e+001
2.948672e+003;9.882100e+001
2.950601e+003;9.882098e+001
2.952529e+003;9.882060e+001
2.954458e+003;9.882108e+001
2.956386e+003;9.882035e+001
2.958315e+003;9.882019e+001
2.960243e+003;9.882031e+001
2.962172e+003;9.882044e+001
2.964100e+003;9.881983e+001
2.966029e+003;9.882092e+001
2.967957e+003;9.882105e+001
2.969886e+003;9.882137e+001
2.971814e+003;9.882090e+001
2.973743e+003;9.882162e+001
2.975671e+003;9.882227e+001
2.977600e+003;9.882301e+001
2.979528e+003;9.882300e+001
2.981457e+003;9.882349e+001
2.983385e+003;9.882307e+001
2.985314e+003;9.882194e+001
2.987242e+003;9.882138e+001
2.989171e+003;9.882192e+001
2.991099e+003;9.882222e+001
2.993028e+003;9.882182e+001
2.994956e+003;9.882132e+001
2.996885e+003;9.882204e+001
2.998813e+003;9.882178e+001
3.000742e+003;9.882245e+001
3.002670e+003;9.882114e+001
3.004599e+003;9.882085e+001
3.006527e+003;9.882127e+001
3.008456e+003;9.882167e+001
3.010384e+003;9.882107e+001
3.012313e+003;9.882121e+001
3.014241e+003;9.882092e+001
3.016170e+003;9.882158e+001
3.018098e+003;9.882139e+001
3.020027e+003;9.882089e+001
3.021955e+003;9.881989e+001
3.023884e+003;9.881970e+001
3.025812e+003;9.881990e+001
3.027741e+003;9.882098e+001
3.029669e+003;9.882084e+001
3.031598e+003;9.882109e+001
3.033526e+003;9.882141e+001
3.035455e+003;9.882240e+001
3.037383e+003;9.882269e+001
3.039312e+003;9.882309e+001
3.041240e+003;9.882277e+001
3.043169e+003;9.882199e+001
3.045097e+003;9.882111e+001
3.047026e+003;9.882156e+001
3.048954e+003;9.882173e+001
3.050883e+003;9.882240e+001
3.052811e+003;9.882381e+001
3.054740e+003;9.882336e+001
3.056668e+003;9.882230e+001
3.058597e+003;9.882197e+001
3.060525e+003;9.882118e+001
3.062454e+003;9.882037e+001
3.064382e+003;9.882160e+001
3.066311e+003;9.882237e+001
3.068239e+003;9.882173e+001
3.070167e+003;9.882233e+001
3.072096e+003;9.882215e+001
3.074025e+003;9.882269e+001
3.075953e+003;9.882279e+001
3.077882e+003;9.882196e+001
3.079810e+003;9.882070e+001
3.081739e+003;9.882100e+001
3.083667e+003;9.882138e+001
3.085595e+003;9.882143e+001
3.087524e+003;9.882140e+001
3.089453e+003;9.882206e+001
3.091381e+003;9.882077e+001
3.093310e+003;9.882091e+001
3.095238e+003;9.882179e+001
3.097167e+003;9.882190e+001
3.099095e+003;9.882097e+001
3.101023e+003;9.882104e+001
3.102952e+003;9.882061e+001
3.104881e+003;9.882170e+001
3.106809e+003;9.882255e+001
3.108738e+003;9.882253e+001
3.110666e+003;9.882182e+001
3.112594e+003;9.882185e+001
3.114523e+003;9.882145e+001
3.116451e+003;9.882154e+001
3.118380e+003;9.881985e+001
3.120309e+003;9.882005e+001
3.122237e+003;9.882065e+001
3.124166e+003;9.882142e+001
3.126094e+003;9.882034e+001
3.128022e+003;9.881916e+001
3.129951e+003;9.881902e+001
3.131879e+003;9.882057e+001
3.133808e+003;9.881981e+001
3.135737e+003;9.881861e+001
3.137665e+003;9.881801e+001
3.139594e+003;9.881916e+001
3.141522e+003;9.881874e+001
3.143450e+003;9.881931e+001
3.145379e+003;9.882002e+001
3.147307e+003;9.882034e+001
3.149236e+003;9.881940e+001
3.151165e+003;9.881976e+001
3.153093e+003;9.881892e+001
3.155021e+003;9.881885e+001
3.156950e+003;9.881918e+001
3.158878e+003;9.881853e+001
3.160807e+003;9.881792e+001
3.162735e+003;9.881814e+001
3.164664e+003;9.881882e+001
3.166593e+003;9.881911e+001
3.168521e+003;9.881871e+001
3.170449e+003;9.881886e+001
3.172378e+003;9.881893e+001
3.174306e+003;9.881944e+001
3.176235e+003;9.881876e+001
3.178163e+003;9.881957e+001
3.180092e+003;9.881972e+001
3.182021e+003;9.882037e+001
3.183949e+003;9.881903e+001
3.185877e+003;9.881897e+001
3.187806e+003;9.881797e+001
3.189734e+003;9.881837e+001
3.191663e+003;9.881801e+001
3.193591e+003;9.881801e+001
3.195520e+003;9.881735e+001
3.197448e+003;9.881777e+001
3.199377e+003;9.881764e+001
3.201305e+003;9.881713e+001
3.203234e+003;9.881658e+001
3.205162e+003;9.881657e+001
3.207091e+003;9.881608e+001
3.209019e+003;9.881679e+001
3.210948e+003;9.881785e+001
3.212876e+003;9.881853e+001
3.214805e+003;9.881808e+001
3.216733e+003;9.881744e+001
3.218662e+003;9.881657e+001
3.220590e+003;9.881672e+001
3.222519e+003;9.881677e+001
3.224447e+003;9.881644e+001
3.226376e+003;9.881608e+001
3.228304e+003;9.881821e+001
3.230233e+003;9.881789e+001
3.232161e+003;9.881699e+001
3.234090e+003;9.881601e+001
3.236018e+003;9.881613e+001
3.237947e+003;9.881712e+001
3.239875e+003;9.881693e+001
3.241804e+003;9.881560e+001
3.243732e+003;9.881638e+001
3.245661e+003;9.881666e+001
3.247589e+003;9.881653e+001
3.249518e+003;9.881628e+001
3.251446e+003;9.881664e+001
3.253375e+003;9.881533e+001
3.255303e+003;9.881403e+001
3.257232e+003;9.881245e+001
3.259160e+003;9.881396e+001
3.261089e+003;9.881562e+001
3.263017e+003;9.881633e+001
3.264946e+003;9.881505e+001
3.266874e+003;9.881495e+001
3.268803e+003;9.881504e+001
3.270731e+003;9.881596e+001
3.272660e+003;9.881498e+001
3.274588e+003;9.881437e+001
3.276517e+003;9.881371e+001
3.278445e+003;9.881538e+001
3.280374e+003;9.881522e+001
3.282302e+003;9.881427e+001
3.284231e+003;9.881440e+001
3.286159e+003;9.881589e+001
3.288088e+003;9.881532e+001
3.290016e+003;9.881454e+001
3.291945e+003;9.881293e+001
3.293873e+003;9.881184e+001
3.295802e+003;9.881238e+001
3.297730e+003;9.881396e+001
3.299659e+003;9.881384e+001
3.301587e+003;9.881491e+001
3.303516e+003;9.881474e+001
3.305444e+003;9.881575e+001
3.307373e+003;9.881638e+001
3.309301e+003;9.881662e+001
3.311230e+003;9.881585e+001
3.313158e+003;9.881581e+001
3.315087e+003;9.881503e+001
3.317015e+003;9.881256e+001
3.318944e+003;9.881357e+001
3.320872e+003;9.881501e+001
3.322801e+003;9.881354e+001
3.324729e+003;9.881279e+001
3.326658e+003;9.881351e+001
3.328586e+003;9.881465e+001
3.330515e+003;9.881422e+001
3.332443e+003;9.881409e+001
3.334372e+003;9.881379e+001
3.336300e+003;9.881380e+001
3.338229e+003;9.881296e+001
3.340157e+003;9.881312e+001
3.342086e+003;9.881255e+001
3.344014e+003;9.881330e+001
3.345943e+003;9.881251e+001
3.347871e+003;9.881265e+001
3.349800e+003;9.881256e+001
3.351728e+003;9.881296e+001
3.353657e+003;9.881416e+001
3.355585e+003;9.881544e+001
3.357514e+003;9.881438e+001
3.359442e+003;9.881347e+001
3.361371e+003;9.881371e+001
3.363299e+003;9.881441e+001
3.365228e+003;9.881382e+001
3.367156e+003;9.881392e+001
3.369085e+003;9.881360e+001
3.371013e+003;9.881374e+001
3.372942e+003;9.881351e+001
3.374870e+003;9.881386e+001
3.376799e+003;9.881252e+001
3.378727e+003;9.881202e+001
3.380656e+003;9.881182e+001
3.382584e+003;9.881231e+001
3.384513e+003;9.881421e+001
3.386441e+003;9.881536e+001
3.388370e+003;9.881390e+001
3.390298e+003;9.881390e+001
3.392227e+003;9.881296e+001
3.394155e+003;9.881303e+001
3.396083e+003;9.881220e+001
3.398012e+003;9.881190e+001
3.399941e+003;9.881158e+001
3.401869e+003;9.881181e+001
3.403798e+003;9.880895e+001
3.405726e+003;9.880883e+001
3.407655e+003;9.881155e+001
3.409583e+003;9.881223e+001
3.411511e+003;9.881130e+001
3.413440e+003;9.881241e+001
3.415369e+003;9.881224e+001
3.417297e+003;9.881173e+001
3.419226e+003;9.880997e+001
3.421154e+003;9.881032e+001
3.423083e+003;9.880913e+001
3.425011e+003;9.880884e+001
3.426939e+003;9.880912e+001
3.428868e+003;9.880952e+001
3.430797e+003;9.880931e+001
3.432725e+003;9.881020e+001
3.434654e+003;9.880939e+001
3.436582e+003;9.880858e+001
3.438510e+003;9.880844e+001
3.440439e+003;9.881042e+001
3.442367e+003;9.881200e+001
3.444296e+003;9.881247e+001
3.446225e+003;9.881100e+001
3.448153e+003;9.880808e+001
3.450082e+003;9.880787e+001
3.452010e+003;9.881066e+001
3.453938e+003;9.881009e+001
3.455867e+003;9.881006e+001
3.457795e+003;9.881002e+001
3.459724e+003;9.880911e+001
3.461653e+003;9.880869e+001
3.463581e+003;9.880950e+001
3.465510e+003;9.880924e+001
3.467438e+003;9.880870e+001
3.469366e+003;9.880741e+001
3.471295e+003;9.880858e+001
3.473223e+003;9.880938e+001
3.475152e+003;9.880978e+001
3.477081e+003;9.880930e+001
3.479009e+003;9.881042e+001
3.480938e+003;9.881056e+001
3.482866e+003;9.880952e+001
3.484794e+003;9.880920e+001
3.486723e+003;9.881214e+001
3.488651e+003;9.881087e+001
3.490580e+003;9.880960e+001
3.492509e+003;9.881084e+001
3.494437e+003;9.881198e+001
3.496365e+003;9.881147e+001
3.498294e+003;9.881042e+001
3.500222e+003;9.880956e+001
3.502151e+003;9.881111e+001
3.504079e+003;9.881245e+001
3.506008e+003;9.881186e+001
3.507937e+003;9.881066e+001
3.509865e+003;9.881162e+001
3.511793e+003;9.881106e+001
3.513722e+003;9.881153e+001
3.515650e+003;9.881067e+001
3.517579e+003;9.881113e+001
3.519507e+003;9.881088e+001
3.521436e+003;9.880962e+001
3.523365e+003;9.880940e+001
3.525293e+003;9.881248e+001
3.527221e+003;9.881269e+001
3.529150e+003;9.881059e+001
3.531078e+003;9.880942e+001
3.533007e+003;9.881003e+001
3.534935e+003;9.880967e+001
3.536864e+003;9.880898e+001
3.538792e+003;9.880811e+001
3.540721e+003;9.880895e+001
3.542649e+003;9.880929e+001
3.544578e+003;9.880991e+001
3.546506e+003;9.880899e+001
3.548435e+003;9.880892e+001
3.550363e+003;9.880870e+001
3.552292e+003;9.880879e+001
3.554220e+003;9.880962e+001
3.556149e+003;9.881150e+001
3.558077e+003;9.881026e+001
3.560006e+003;9.880959e+001
3.561934e+003;9.880898e+001
3.563863e+003;9.880921e+001
3.565791e+003;9.880767e+001
3.567720e+003;9.880952e+001
3.569648e+003;9.881161e+001
3.571577e+003;9.881042e+001
3.573505e+003;9.880949e+001
3.575434e+003;9.880965e+001
3.577362e+003;9.880879e+001
3.579291e+003;9.880878e+001
3.581219e+003;9.880794e+001
3.583148e+003;9.880700e+001
3.585076e+003;9.880714e+001
3.587005e+003;9.880853e+001
3.588933e+003;9.880697e+001
3.590862e+003;9.880691e+001
3.592790e+003;9.880612e+001
3.594719e+003;9.880758e+001
3.596647e+003;9.880851e+001
3.598576e+003;9.880624e+001
3.600504e+003;9.880489e+001
3.602433e+003;9.880642e+001
3.604361e+003;9.880724e+001
3.606290e+003;9.880734e+001
3.608218e+003;9.880717e+001
3.610147e+003;9.880861e+001
3.612075e+003;9.880634e+001
3.614004e+003;9.880493e+001
3.615932e+003;9.880441e+001
3.617861e+003;9.880393e+001
3.619789e+003;9.880516e+001
3.621718e+003;9.880615e+001
3.623646e+003;9.880430e+001
3.625575e+003;9.880400e+001
3.627503e+003;9.880193e+001
3.629432e+003;9.880211e+001
3.631360e+003;9.880327e+001
3.633289e+003;9.880342e+001
3.635217e+003;9.880290e+001
3.637146e+003;9.880383e+001
3.639074e+003;9.880335e+001
3.641003e+003;9.880276e+001
3.642931e+003;9.880151e+001
3.644860e+003;9.880196e+001
3.646788e+003;9.880224e+001
3.648717e+003;9.880109e+001
3.650645e+003;9.879961e+001
3.652574e+003;9.880099e+001
3.654502e+003;9.880108e+001
3.656431e+003;9.880132e+001
3.658359e+003;9.880156e+001
3.660288e+003;9.880109e+001
3.662216e+003;9.879920e+001
3.664145e+003;9.880061e+001
3.666073e+003;9.880067e+001
3.668002e+003;9.880097e+001
3.669930e+003;9.879893e+001
3.671859e+003;9.879934e+001
3.673787e+003;9.879919e+001
3.675716e+003;9.879904e+001
3.677644e+003;9.879851e+001
3.679573e+003;9.879810e+001
3.681501e+003;9.879800e+001
3.683430e+003;9.879850e+001
3.685358e+003;9.879774e+001
3.687287e+003;9.879706e+001
3.689215e+003;9.879563e+001
3.691144e+003;9.879745e+001
3.693072e+003;9.880000e+001
3.695001e+003;9.879959e+001
3.696929e+003;9.879721e+001
3.698858e+003;9.879724e+001
3.700786e+003;9.879735e+001
3.702715e+003;9.879901e+001
3.704643e+003;9.879769e+001
3.706572e+003;9.879635e+001
3.708500e+003;9.879579e+001
3.710429e+003;9.879523e+001
3.712357e+003;9.879392e+001
3.714286e+003;9.879532e+001
3.716214e+003;9.879582e+001
3.718143e+003;9.879483e+001
3.720071e+003;9.879301e+001
3.722000e+003;9.879234e+001
3.723928e+003;9.879173e+001
3.725857e+003;9.879015e+001
3.727785e+003;9.878960e+001
3.729714e+003;9.879030e+001
3.731642e+003;9.878848e+001
3.733571e+003;9.878915e+001
3.735499e+003;9.878846e+001
3.737427e+003;9.879013e+001
3.739356e+003;9.879140e+001
3.741285e+003;9.879313e+001
3.743213e+003;9.879396e+001
3.745142e+003;9.879562e+001
3.747070e+003;9.879726e+001
3.748999e+003;9.879830e+001
3.750927e+003;9.879918e+001
3.752855e+003;9.879958e+001
3.754784e+003;9.880056e+001
3.756713e+003;9.880274e+001
3.758641e+003;9.880043e+001
3.760570e+003;9.880036e+001
3.762498e+003;9.880148e+001
3.764427e+003;9.879948e+001
3.766355e+003;9.879883e+001
3.768283e+003;9.880073e+001
3.770212e+003;9.879980e+001
3.772141e+003;9.879904e+001
3.774069e+003;9.880039e+001
3.775998e+003;9.880122e+001
3.777926e+003;9.880164e+001
3.779854e+003;9.880322e+001
3.781783e+003;9.880289e+001
3.783711e+003;9.880367e+001
3.785640e+003;9.880279e+001
3.787569e+003;9.880122e+001
3.789497e+003;9.880203e+001
3.791426e+003;9.880184e+001
3.793354e+003;9.879881e+001
3.795282e+003;9.879881e+001
3.797211e+003;9.879967e+001
3.799139e+003;9.879991e+001
3.801068e+003;9.879853e+001
3.802997e+003;9.879839e+001
3.804925e+003;9.879836e+001
3.806854e+003;9.879967e+001
3.808782e+003;9.880193e+001
3.810710e+003;9.880209e+001
3.812639e+003;9.880030e+001
3.814567e+003;9.879971e+001
3.816496e+003;9.879904e+001
3.818425e+003;9.879883e+001
3.820353e+003;9.879777e+001
3.822281e+003;9.880010e+001
3.824210e+003;9.880234e+001
3.826138e+003;9.880242e+001
3.828067e+003;9.880029e+001
3.829995e+003;9.879996e+001
3.831924e+003;9.879980e+001
3.833853e+003;9.880058e+001
3.835781e+003;9.879977e+001
3.837709e+003;9.880035e+001
3.839638e+003;9.879974e+001
3.841566e+003;9.879922e+001
3.843495e+003;9.879852e+001
3.845423e+003;9.880022e+001
3.847352e+003;9.879915e+001
3.849281e+003;9.879762e+001
3.851209e+003;9.879797e+001
3.853137e+003;9.879825e+001
3.855066e+003;9.879966e+001
3.856994e+003;9.880252e+001
3.858923e+003;9.880179e+001
3.860851e+003;9.880097e+001
3.862780e+003;9.880013e+001
3.864708e+003;9.879823e+001
3.866637e+003;9.879768e+001
3.868565e+003;9.879962e+001
3.870494e+003;9.880096e+001
3.872422e+003;9.880088e+001
3.874351e+003;9.879983e+001
3.876279e+003;9.880125e+001
3.878208e+003;9.880062e+001
3.880136e+003;9.880057e+001
3.882065e+003;9.879861e+001
3.883993e+003;9.879807e+001
3.885922e+003;9.879868e+001
3.887850e+003;9.880057e+001
3.889779e+003;9.880099e+001
3.891707e+003;9.879951e+001
3.893636e+003;9.879770e+001
3.895564e+003;9.879884e+001
3.897493e+003;9.879987e+001
3.899421e+003;9.879945e+001
3.901350e+003;9.879685e+001
3.903278e+003;9.879770e+001
3.905207e+003;9.880085e+001
3.907135e+003;9.880196e+001
3.909064e+003;9.879928e+001
3.910992e+003;9.879942e+001
3.912921e+003;9.880035e+001
3.914849e+003;9.880016e+001
3.916778e+003;9.879983e+001
3.918706e+003;9.880105e+001
3.920635e+003;9.879987e+001
3.922563e+003;9.879983e+001
3.924492e+003;9.879871e+001
3.926420e+003;9.879866e+001
3.928349e+003;9.879913e+001
3.930277e+003;9.879963e+001
3.932206e+003;9.879762e+001
3.934134e+003;9.879696e+001
3.936063e+003;9.879823e+001
3.937991e+003;9.879805e+001
3.939920e+003;9.879591e+001
3.941848e+003;9.879671e+001
3.943777e+003;9.879765e+001
3.945705e+003;9.879843e+001
3.947634e+003;9.879846e+001
3.949562e+003;9.879790e+001
3.951491e+003;9.879538e+001
3.953419e+003;9.879498e+001
3.955348e+003;9.879552e+001
3.957276e+003;9.879813e+001
3.959205e+003;9.879886e+001
3.961133e+003;9.879845e+001
3.963062e+003;9.879776e+001
3.964990e+003;9.879778e+001
3.966919e+003;9.879639e+001
3.968847e+003;9.879637e+001
3.970776e+003;9.879618e+001
3.972704e+003;9.879742e+001
3.974633e+003;9.879682e+001
3.976561e+003;9.879549e+001
3.978490e+003;9.879562e+001
3.980418e+003;9.879603e+001
3.982347e+003;9.879534e+001
3.984275e+003;9.879700e+001
3.986204e+003;9.879754e+001
3.988132e+003;9.879848e+001
3.990061e+003;9.879783e+001
3.991989e+003;9.879679e+001
3.993918e+003;9.879383e+001
3.995846e+003;9.879258e+001
3.997775e+003;9.879350e+001
3.999703e+003;9.879533e+001
