3.991989e+002;9.795589e+001
4.011274e+002;9.752802e+001
4.030559e+002;9.716599e+001
4.049844e+002;9.729368e+001
4.069129e+002;9.733116e+001
4.088414e+002;9.685328e+001
4.107699e+002;9.625266e+001
4.126984e+002;9.593681e+001
4.146269e+002;9.546901e+001
4.165554e+002;9.512257e+001
4.184839e+002;9.457018e+001
4.204124e+002;9.376102e+001
4.223409e+002;9.344907e+001
4.242694e+002;9.311372e+001
4.261979e+002;9.249189e+001
4.281264e+002;9.167788e+001
4.300549e+002;9.088576e+001
4.319834e+002;9.015588e+001
4.339119e+002;8.937166e+001
4.358404e+002;8.853455e+001
4.377689e+002;8.780719e+001
4.396974e+002;8.696614e+001
4.416259e+002;8.595396e+001
4.435544e+002;8.505341e+001
4.454829e+002;8.415518e+001
4.474114e+002;8.343998e+001
4.493399e+002;8.274187e+001
4.512684e+002;8.193926e+001
4.531969e+002;8.139703e+001
4.551254e+002;8.112519e+001
4.570539e+002;8.096774e+001
4.589824e+002;8.094549e+001
4.609109e+002;8.116103e+001
4.628394e+002;8.164816e+001
4.647679e+002;8.236891e+001
4.666964e+002;8.354814e+001
4.686248e+002;8.493225e+001
4.705533e+002;8.644567e+001
4.724818e+002;8.828264e+001
4.744103e+002;9.010744e+001
4.763388e+002;9.179547e+001
4.782673e+002;9.334492e+001
4.801958e+002;9.484441e+001
4.821243e+002;9.629958e+001
4.840528e+002;9.744775e+001
4.859813e+002;9.811179e+001
4.879098e+002;9.857345e+001
4.898383e+002;9.905322e+001
4.917668e+002;9.959055e+001
4.936953e+002;9.994150e+001
4.956238e+002;1.002072e+002
4.975523e+002;1.005462e+002
4.994808e+002;1.007651e+002
5.014093e+002;1.008541e+002
5.033378e+002;1.009776e+002
5.052663e+002;1.010811e+002
5.071948e+002;1.011588e+002
5.091233e+002;1.013996e+002
5.110518e+002;1.016631e+002
5.129803e+002;1.018600e+002
5.149088e+002;1.019010e+002
5.168373e+002;1.018319e+002
5.187657e+002;1.018318e+002
5.206943e+002;1.019078e+002
5.226227e+002;1.020456e+002
5.245513e+002;1.022506e+002
5.264797e+002;1.022806e+002
5.284083e+002;1.021972e+002
5.303367e+002;1.021784e+002
5.322653e+002;1.021989e+002
5.341937e+002;1.023109e+002
5.361223e+002;1.022863e+002
5.380507e+002;1.022249e+002
5.399792e+002;1.022787e+002
5.419077e+002;1.023352e+002
5.438362e+002;1.023143e+002
5.457647e+002;1.022110e+002
5.476932e+002;1.021698e+002
5.496217e+002;1.022483e+002
5.515502e+002;1.022914e+002
5.534787e+002;1.022534e+002
5.554072e+002;1.021683e+002
5.573357e+002;1.020233e+002
5.592642e+002;1.018874e+002
5.611927e+002;1.017875e+002
5.631212e+002;1.017212e+002
5.650497e+002;1.016770e+002
5.669782e+002;1.015388e+002
5.689067e+002;1.013833e+002
5.708352e+002;1.011726e+002
5.727637e+002;1.009157e+002
5.746922e+002;1.006608e+002
5.766207e+002;1.004406e+002
5.785492e+002;1.002414e+002
5.804777e+002;1.000280e+002
5.824062e+002;9.974718e+001
5.843347e+002;9.938486e+001
5.862632e+002;9.901408e+001
5.881917e+002;9.865299e+001
5.901202e+002;9.837333e+001
5.920486e+002;9.809160e+001
5.939772e+002;9.781471e+001
5.959056e+002;9.753970e+001
5.978342e+002;9.723079e+001
5.997626e+002;9.695818e+001
6.016912e+002;9.685784e+001
6.036196e+002;9.661265e+001
6.055482e+002;9.640540e+001
6.074766e+002;9.619163e+001
6.094052e+002;9.602545e+001
6.113336e+002;9.575317e+001
6.132621e+002;9.543110e+001
6.151906e+002;9.530757e+001
6.171191e+002;9.512235e+001
6.190476e+002;9.501881e+001
6.209761e+002;9.488669e+001
6.229046e+002;9.459196e+001
6.248331e+002;9.434992e+001
6.267616e+002;9.410938e+001
6.286901e+002;9.370688e+001
6.306186e+002;9.338724e+001
6.325471e+002;9.325488e+001
6.344756e+002;9.320285e+001
6.364041e+002;9.319042e+001
6.383326e+002;9.315619e+001
6.402611e+002;9.314476e+001
6.421896e+002;9.314880e+001
6.441181e+002;9.322919e+001
6.460466e+002;9.333846e+001
6.479751e+002;9.349698e+001
6.499036e+002;9.369126e+001
6.518321e+002;9.389732e+001
6.537606e+002;9.411706e+001
6.556891e+002;9.439397e+001
6.576176e+002;9.466850e+001
6.595461e+002;9.490283e+001
6.614745e+002;9.508570e+001
6.634031e+002;9.527108e+001
6.653315e+002;9.545291e+001
6.672601e+002;9.566990e+001
6.691885e+002;9.591055e+001
6.711171e+002;9.620732e+001
6.730455e+002;9.654584e+001
6.749741e+002;9.686327e+001
6.769025e+002;9.715297e+001
6.788311e+002;9.742807e+001
6.807595e+002;9.769647e+001
6.826880e+002;9.799697e+001
6.846165e+002;9.835165e+001
6.865450e+002;9.871781e+001
6.884735e+002;9.905566e+001
6.904020e+002;9.934675e+001
6.923305e+002;9.960079e+001
6.942590e+002;9.984784e+001
6.961875e+002;1.001235e+002
6.981160e+002;1.004258e+002
7.000445e+002;1.007327e+002
7.019730e+002;1.009985e+002
7.039015e+002;1.012224e+002
7.058300e+002;1.014390e+002
7.077585e+002;1.016549e+002
7.096870e+002;1.018929e+002
7.116155e+002;1.021432e+002
7.135440e+002;1.023845e+002
7.154725e+002;1.025913e+002
7.174010e+002;1.027594e+002
7.193295e+002;1.028975e+002
7.212580e+002;1.030330e+002
7.231865e+002;1.031947e+002
7.251150e+002;1.033778e+002
7.270435e+002;1.035391e+002
7.289720e+002;1.036444e+002
7.309005e+002;1.037197e+002
7.328290e+002;1.037783e+002
7.347574e+002;1.038673e+002
7.366860e+002;1.039786e+002
7.386144e+002;1.041018e+002
7.405430e+002;1.041783e+002
7.424714e+002;1.042150e+002
7.444000e+002;1.042208e+002
7.463284e+002;1.042135e+002
7.482570e+002;1.042534e+002
7.501854e+002;1.043067e+002
7.521140e+002;1.043663e+002
7.540424e+002;1.043983e+002
7.559709e+002;1.044052e+002
7.578994e+002;1.043801e+002
7.598279e+002;1.043605e+002
7.617564e+002;1.043490e+002
7.636849e+002;1.043557e+002
7.656134e+002;1.043312e+002
7.675419e+002;1.042370e+002
7.694704e+002;1.040809e+002
7.713989e+002;1.038922e+002
7.733274e+002;1.036671e+002
7.752559e+002;1.034133e+002
7.771844e+002;1.031643e+002
7.791129e+002;1.029133e+002
7.810414e+002;1.026547e+002
7.829699e+002;1.023982e+002
7.848984e+002;1.021435e+002
7.868269e+002;1.019358e+002
7.887554e+002;1.017943e+002
7.906839e+002;1.016884e+002
7.926124e+002;1.015728e+002
7.945409e+002;1.014568e+002
7.964694e+002;1.013411e+002
7.983979e+002;1.012559e+002
8.003264e+002;1.012158e+002
8.022549e+002;1.012311e+002
8.041833e+002;1.012673e+002
8.061119e+002;1.012950e+002
8.080403e+002;1.013268e+002
8.099689e+002;1.013830e+002
8.118973e+002;1.014515e+002
8.138259e+002;1.015547e+002
8.157543e+002;1.016874e+002
8.176829e+002;1.018289e+002
8.196113e+002;1.019599e+002
8.215399e+002;1.020916e+002
8.234683e+002;1.022292e+002
8.253969e+002;1.023737e+002
8.273253e+002;1.025400e+002
8.292538e+002;1.027030e+002
8.311823e+002;1.028219e+002
8.331108e+002;1.029441e+002
8.350393e+002;1.030748e+002
8.369678e+002;1.032043e+002
8.388963e+002;1.033661e+002
8.408248e+002;1.035741e+002
8.427533e+002;1.038025e+002
8.446818e+002;1.040468e+002
8.466103e+002;1.042836e+002
8.485388e+002;1.045065e+002
8.504673e+002;1.047384e+002
8.523958e+002;1.049874e+002
8.543243e+002;1.052261e+002
8.562528e+002;1.054582e+002
8.581813e+002;1.056577e+002
8.601098e+002;1.058146e+002
8.620383e+002;1.059544e+002
8.639668e+002;1.060696e+002
8.658953e+002;1.061545e+002
8.678238e+002;1.062202e+002
8.697523e+002;1.062361e+002
8.716808e+002;1.062197e+002
8.736093e+002;1.061704e+002
8.755378e+002;1.060962e+002
8.774662e+002;1.060260e+002
8.793948e+002;1.059800e+002
8.813232e+002;1.059315e+002
8.832518e+002;1.059082e+002
8.851802e+002;1.059075e+002
8.871088e+002;1.059118e+002
8.890372e+002;1.059692e+002
8.909658e+002;1.060545e+002
8.928942e+002;1.061364e+002
8.948227e+002;1.062508e+002
8.967512e+002;1.063653e+002
8.986797e+002;1.064690e+002
9.006082e+002;1.065743e+002
9.025367e+002;1.066669e+002
9.044652e+002;1.067520e+002
9.063937e+002;1.068383e+002
9.083222e+002;1.068936e+002
9.102507e+002;1.069368e+002
9.121792e+002;1.069784e+002
9.141077e+002;1.070013e+002
9.160362e+002;1.070373e+002
9.179647e+002;1.070789e+002
9.198932e+002;1.070915e+002
9.218217e+002;1.071159e+002
9.237502e+002;1.071301e+002
9.256786e+002;1.071195e+002
9.276072e+002;1.071325e+002
9.295356e+002;1.071534e+002
9.314642e+002;1.071414e+002
9.333926e+002;1.071359e+002
9.353212e+002;1.071178e+002
9.372496e+002;1.070933e+002
9.391782e+002;1.070844e+002
9.411066e+002;1.070669e+002
9.430352e+002;1.070407e+002
9.449636e+002;1.070252e+002
9.468922e+002;1.069868e+002
9.488206e+002;1.069492e+002
9.507491e+002;1.069242e+002
9.526776e+002;1.068796e+002
9.546061e+002;1.068363e+002
9.565346e+002;1.068025e+002
9.584631e+002;1.067478e+002
9.603916e+002;1.066940e+002
9.623201e+002;1.066356e+002
9.642486e+002;1.065614e+002
9.661771e+002;1.064954e+002
9.681056e+002;1.064237e+002
9.700341e+002;1.063280e+002
9.719626e+002;1.062345e+002
9.738911e+002;1.061210e+002
9.758196e+002;1.059919e+002
9.777481e+002;1.058616e+002
9.796766e+002;1.057100e+002
9.816051e+002;1.055309e+002
9.835336e+002;1.053404e+002
9.854621e+002;1.051239e+002
9.873906e+002;1.048781e+002
9.893191e+002;1.046036e+002
9.912476e+002;1.042874e+002
9.931761e+002;1.039373e+002
9.951046e+002;1.035439e+002
9.970331e+002;1.030774e+002
9.989615e+002;1.025524e+002
1.000890e+003;1.019641e+002
1.002819e+003;1.012956e+002
1.004747e+003;1.005584e+002
1.006676e+003;9.972937e+001
1.008604e+003;9.879684e+001
1.010533e+003;9.778297e+001
1.012461e+003;9.666921e+001
1.014390e+003;9.546257e+001
1.016318e+003;9.417625e+001
1.018247e+003;9.280409e+001
1.020175e+003;9.135937e+001
1.022104e+003;8.987100e+001
1.024032e+003;8.833032e+001
1.025961e+003;8.676937e+001
1.027889e+003;8.520876e+001
1.029818e+003;8.364191e+001
1.031746e+003;8.210020e+001
1.033675e+003;8.058963e+001
1.035603e+003;7.910025e+001
1.037531e+003;7.767204e+001
1.039460e+003;7.629877e+001
1.041389e+003;7.497964e+001
1.043317e+003;7.373061e+001
1.045245e+003;7.254470e+001
1.047174e+003;7.141217e+001
1.049103e+003;7.035711e+001
1.051031e+003;6.937280e+001
1.052959e+003;6.846535e+001
1.054888e+003;6.764786e+001
1.056817e+003;6.690263e+001
1.058745e+003;6.623329e+001
1.060673e+003;6.565246e+001
1.062602e+003;6.514700e+001
1.064531e+003;6.473985e+001
1.066459e+003;6.443205e+001
1.068387e+003;6.420725e+001
1.070316e+003;6.408052e+001
1.072245e+003;6.405552e+001
1.074173e+003;6.412066e+001
1.076101e+003;6.430317e+001
1.078030e+003;6.461167e+001
1.079958e+003;6.504447e+001
1.081887e+003;6.561809e+001
1.083815e+003;6.632126e+001
1.085744e+003;6.715570e+001
1.087672e+003;6.817062e+001
1.089601e+003;6.935793e+001
1.091529e+003;7.072938e+001
1.093458e+003;7.230684e+001
1.095386e+003;7.407360e+001
1.097315e+003;7.602519e+001
1.099243e+003;7.817956e+001
1.101172e+003;8.051161e+001
1.103100e+003;8.303326e+001
1.105029e+003;8.570717e+001
1.106957e+003;8.845647e+001
1.108886e+003;9.122198e+001
1.110814e+003;9.393121e+001
1.112743e+003;9.648460e+001
1.114671e+003;9.883517e+001
1.116600e+003;1.009037e+002
1.118528e+003;1.026325e+002
1.120457e+003;1.040145e+002
1.122385e+003;1.050619e+002
1.124314e+003;1.058202e+002
1.126242e+003;1.063823e+002
1.128171e+003;1.067811e+002
1.130099e+003;1.070694e+002
1.132028e+003;1.072834e+002
1.133956e+003;1.074123e+002
1.135885e+003;1.074759e+002
1.137813e+003;1.075356e+002
1.139742e+003;1.075772e+002
1.141670e+003;1.076332e+002
1.143599e+003;1.076945e+002
1.145527e+003;1.077278e+002
1.147456e+003;1.077463e+002
1.149384e+003;1.077647e+002
1.151313e+003;1.077923e+002
1.153241e+003;1.078462e+002
1.155170e+003;1.079144e+002
1.157098e+003;1.079753e+002
1.159027e+003;1.080388e+002
1.160955e+003;1.080858e+002
1.162884e+003;1.081219e+002
1.164812e+003;1.081969e+002
1.166741e+003;1.082811e+002
1.168669e+003;1.083793e+002
1.170598e+003;1.084712e+002
1.172526e+003;1.085395e+002
1.174455e+003;1.085982e+002
1.176383e+003;1.086849e+002
1.178312e+003;1.087670e+002
1.180240e+003;1.089187e+002
1.182169e+003;1.090488e+002
1.184097e+003;1.090901e+002
1.186026e+003;1.091733e+002
1.187954e+003;1.092565e+002
1.189883e+003;1.093518e+002
1.191811e+003;1.094773e+002
1.193740e+003;1.096143e+002
1.195668e+003;1.097238e+002
1.197597e+003;1.098334e+002
1.199525e+003;1.099284e+002
1.201454e+003;1.100312e+002
1.203382e+003;1.101652e+002
1.205311e+003;1.103126e+002
1.207239e+003;1.104579e+002
1.209168e+003;1.105979e+002
1.211096e+003;1.107061e+002
1.213025e+003;1.108216e+002
1.214953e+003;1.109645e+002
1.216882e+003;1.111188e+002
1.218810e+003;1.112832e+002
1.220739e+003;1.114372e+002
1.222667e+003;1.115563e+002
1.224596e+003;1.116740e+002
1.226524e+003;1.118010e+002
1.228453e+003;1.119407e+002
1.230381e+003;1.120983e+002
1.232310e+003;1.122414e+002
1.234238e+003;1.123523e+002
1.236167e+003;1.124500e+002
1.238095e+003;1.125346e+002
1.240024e+003;1.126284e+002
1.241952e+003;1.127489e+002
1.243881e+003;1.128604e+002
1.245809e+003;1.129424e+002
1.247738e+003;1.130073e+002
1.249666e+003;1.130502e+002
1.251595e+003;1.130989e+002
1.253523e+003;1.131830e+002
1.255452e+003;1.132783e+002
1.257380e+003;1.133799e+002
1.259309e+003;1.134841e+002
1.261237e+003;1.135735e+002
1.263166e+003;1.136855e+002
1.265094e+003;1.138421e+002
1.267023e+003;1.140183e+002
1.268951e+003;1.142024e+002
1.270880e+003;1.143744e+002
1.272808e+003;1.145038e+002
1.274737e+003;1.146109e+002
1.276665e+003;1.147176e+002
1.278594e+003;1.148326e+002
1.280522e+003;1.149610e+002
1.282451e+003;1.150742e+002
1.284379e+003;1.151483e+002
1.286308e+003;1.152029e+002
1.288236e+003;1.152542e+002
1.290165e+003;1.153110e+002
1.292093e+003;1.153883e+002
1.294022e+003;1.154681e+002
1.295950e+003;1.155294e+002
1.297879e+003;1.155709e+002
1.299807e+003;1.155949e+002
1.301736e+003;1.156212e+002
1.303664e+003;1.156750e+002
1.305593e+003;1.157410e+002
1.307521e+003;1.157988e+002
1.309450e+003;1.158355e+002
1.311378e+003;1.158515e+002
1.313307e+003;1.158658e+002
1.315235e+003;1.158984e+002
1.317164e+003;1.159491e+002
1.319092e+003;1.160057e+002
1.321021e+003;1.160516e+002
1.322949e+003;1.160697e+002
1.324878e+003;1.160742e+002
1.326806e+003;1.160931e+002
1.328735e+003;1.161327e+002
1.330663e+003;1.161918e+002
1.332592e+003;1.162501e+002
1.334520e+003;1.162772e+002
1.336449e+003;1.162830e+002
1.338377e+003;1.162940e+002
1.340306e+003;1.163189e+002
1.342234e+003;1.163620e+002
1.344163e+003;1.164139e+002
1.346091e+003;1.164459e+002
1.348020e+003;1.164603e+002
1.349948e+003;1.164656e+002
1.351877e+003;1.164715e+002
1.353805e+003;1.165087e+002
1.355734e+003;1.165601e+002
1.357662e+003;1.166018e+002
1.359591e+003;1.166287e+002
1.361519e+003;1.166327e+002
1.363448e+003;1.166366e+002
1.365376e+003;1.166739e+002
1.367305e+003;1.167161e+002
1.369233e+003;1.167589e+002
1.371161e+003;1.168066e+002
1.373090e+003;1.168208e+002
1.375019e+003;1.168142e+002
1.376947e+003;1.168280e+002
1.378875e+003;1.168558e+002
1.380804e+003;1.169037e+002
1.382733e+003;1.169553e+002
1.384661e+003;1.169767e+002
1.386589e+003;1.169878e+002
1.388518e+003;1.169929e+002
1.390447e+003;1.169920e+002
1.392375e+003;1.170340e+002
1.394303e+003;1.170817e+002
1.396232e+003;1.171137e+002
1.398161e+003;1.171223e+002
1.400089e+003;1.171217e+002
1.402017e+003;1.171328e+002
1.403946e+003;1.171681e+002
1.405875e+003;1.172152e+002
1.407803e+003;1.172622e+002
1.409731e+003;1.172899e+002
1.411660e+003;1.172816e+002
1.413589e+003;1.172716e+002
1.415517e+003;1.173030e+002
1.417445e+003;1.173393e+002
1.419374e+003;1.173877e+002
1.421302e+003;1.174207e+002
1.423231e+003;1.174067e+002
1.425159e+003;1.174080e+002
1.427088e+003;1.174333e+002
1.429016e+003;1.174489e+002
1.430945e+003;1.175050e+002
1.432873e+003;1.175553e+002
1.434802e+003;1.175928e+002
1.436730e+003;1.176342e+002
1.438659e+003;1.176052e+002
1.440587e+003;1.175956e+002
1.442516e+003;1.176512e+002
1.444444e+003;1.176918e+002
1.446373e+003;1.177180e+002
1.448301e+003;1.177359e+002
1.450230e+003;1.177157e+002
1.452158e+003;1.177197e+002
1.454087e+003;1.177586e+002
1.456015e+003;1.177417e+002
1.457944e+003;1.177902e+002
1.459872e+003;1.178526e+002
1.461801e+003;1.178341e+002
1.463729e+003;1.178262e+002
1.465658e+003;1.178492e+002
1.467586e+003;1.178870e+002
1.469515e+003;1.179426e+002
1.471443e+003;1.179767e+002
1.473372e+003;1.179274e+002
1.475300e+003;1.179207e+002
1.477229e+003;1.179503e+002
1.479157e+003;1.179845e+002
1.481086e+003;1.180333e+002
1.483014e+003;1.180602e+002
1.484943e+003;1.180563e+002
1.486871e+003;1.180549e+002
1.488800e+003;1.180524e+002
1.490728e+003;1.180791e+002
1.492657e+003;1.181387e+002
1.494585e+003;1.181663e+002
1.496514e+003;1.181851e+002
1.498442e+003;1.181917e+002
1.500371e+003;1.181858e+002
1.502299e+003;1.182131e+002
1.504228e+003;1.182676e+002
1.506156e+003;1.182676e+002
1.508085e+003;1.182891e+002
1.510013e+003;1.183078e+002
1.511942e+003;1.182816e+002
1.513870e+003;1.183027e+002
1.515799e+003;1.183231e+002
1.517727e+003;1.183364e+002
1.519656e+003;1.184149e+002
1.521584e+003;1.184543e+002
1.523513e+003;1.184106e+002
1.525441e+003;1.184133e+002
1.527370e+003;1.184345e+002
1.529298e+003;1.184616e+002
1.531227e+003;1.185086e+002
1.533155e+003;1.185078e+002
1.535084e+003;1.185254e+002
1.537012e+003;1.185358e+002
1.538941e+003;1.185000e+002
1.540869e+003;1.185267e+002
1.542798e+003;1.185703e+002
1.544726e+003;1.186049e+002
1.546655e+003;1.186447e+002
1.548583e+003;1.186586e+002
1.550512e+003;1.186366e+002
1.552440e+003;1.186921e+002
1.554369e+003;1.187501e+002
1.556297e+003;1.187395e+002
1.558226e+003;1.187466e+002
1.560154e+003;1.188074e+002
1.562083e+003;1.187801e+002
1.564011e+003;1.187729e+002
1.565940e+003;1.187840e+002
1.567868e+003;1.187972e+002
1.569797e+003;1.188215e+002
1.571725e+003;1.188409e+002
1.573654e+003;1.188650e+002
1.575582e+003;1.189271e+002
1.577511e+003;1.189088e+002
1.579439e+003;1.189037e+002
1.581368e+003;1.189339e+002
1.583296e+003;1.189328e+002
1.585225e+003;1.189456e+002
1.587153e+003;1.189429e+002
1.589082e+003;1.189318e+002
1.591010e+003;1.189654e+002
1.592939e+003;1.189929e+002
1.594867e+003;1.190066e+002
1.596796e+003;1.190292e+002
1.598724e+003;1.190160e+002
1.600653e+003;1.190078e+002
1.602581e+003;1.190360e+002
1.604510e+003;1.190494e+002
1.606438e+003;1.190719e+002
1.608367e+003;1.191012e+002
1.610295e+003;1.190909e+002
1.612224e+003;1.190866e+002
1.614152e+003;1.190884e+002
1.616081e+003;1.190715e+002
1.618009e+003;1.191169e+002
1.619938e+003;1.191639e+002
1.621866e+003;1.191609e+002
1.623795e+003;1.191664e+002
1.625723e+003;1.191623e+002
1.627652e+003;1.191647e+002
1.629580e+003;1.192085e+002
1.631509e+003;1.192287e+002
1.633437e+003;1.192027e+002
1.635366e+003;1.191827e+002
1.637294e+003;1.192052e+002
1.639223e+003;1.192306e+002
1.641151e+003;1.192679e+002
1.643080e+003;1.192841e+002
1.645008e+003;1.192903e+002
1.646937e+003;1.193112e+002
1.648865e+003;1.193041e+002
1.650794e+003;1.193109e+002
1.652722e+003;1.193745e+002
1.654651e+003;1.193707e+002
1.656579e+003;1.193761e+002
1.658508e+003;1.193972e+002
1.660436e+003;1.193806e+002
1.662365e+003;1.193771e+002
1.664293e+003;1.193955e+002
1.666222e+003;1.194216e+002
1.668150e+003;1.194678e+002
1.670079e+003;1.194817e+002
1.672007e+003;1.194636e+002
1.673936e+003;1.194981e+002
1.675864e+003;1.195025e+002
1.677793e+003;1.194959e+002
1.679721e+003;1.195258e+002
1.681650e+003;1.195351e+002
1.683578e+003;1.194984e+002
1.685507e+003;1.194930e+002
1.687435e+003;1.195324e+002
1.689364e+003;1.195540e+002
1.691292e+003;1.195820e+002
1.693221e+003;1.195757e+002
1.695149e+003;1.195446e+002
1.697078e+003;1.195744e+002
1.699006e+003;1.196292e+002
1.700935e+003;1.196388e+002
1.702863e+003;1.196365e+002
1.704792e+003;1.196404e+002
1.706720e+003;1.196653e+002
1.708649e+003;1.196752e+002
1.710577e+003;1.196742e+002
1.712505e+003;1.196835e+002
1.714434e+003;1.196703e+002
1.716363e+003;1.196644e+002
1.718291e+003;1.197087e+002
1.720219e+003;1.197276e+002
1.722148e+003;1.197193e+002
1.724077e+003;1.197195e+002
1.726005e+003;1.197159e+002
1.727933e+003;1.197352e+002
1.729862e+003;1.197534e+002
1.731791e+003;1.197439e+002
1.733719e+003;1.197345e+002
1.735647e+003;1.197343e+002
1.737576e+003;1.197287e+002
1.739505e+003;1.197317e+002
1.741433e+003;1.197504e+002
1.743361e+003;1.197575e+002
1.745290e+003;1.197574e+002
1.747219e+003;1.197440e+002
1.749147e+003;1.197390e+002
1.751075e+003;1.197549e+002
1.753004e+003;1.197560e+002
1.754932e+003;1.197571e+002
1.756861e+003;1.197667e+002
1.758789e+003;1.197561e+002
1.760718e+003;1.197448e+002
1.762646e+003;1.197472e+002
1.764575e+003;1.197517e+002
1.766503e+003;1.197753e+002
1.768432e+003;1.197912e+002
1.770360e+003;1.197700e+002
1.772289e+003;1.197494e+002
1.774217e+003;1.197485e+002
1.776146e+003;1.197585e+002
1.778074e+003;1.197721e+002
1.780003e+003;1.197716e+002
1.781931e+003;1.197655e+002
1.783860e+003;1.197722e+002
1.785788e+003;1.197628e+002
1.787717e+003;1.197553e+002
1.789645e+003;1.197616e+002
1.791574e+003;1.197681e+002
1.793502e+003;1.197705e+002
1.795431e+003;1.197622e+002
1.797359e+003;1.197423e+002
1.799288e+003;1.197416e+002
1.801216e+003;1.197458e+002
1.803145e+003;1.197410e+002
1.805073e+003;1.197444e+002
1.807002e+003;1.197397e+002
1.808930e+003;1.197236e+002
1.810859e+003;1.197176e+002
1.812787e+003;1.197131e+002
1.814716e+003;1.197134e+002
1.816644e+003;1.197210e+002
1.818573e+003;1.197107e+002
1.820501e+003;1.196919e+002
1.822430e+003;1.196797e+002
1.824358e+003;1.196684e+002
1.826287e+003;1.196694e+002
1.828215e+003;1.196682e+002
1.830144e+003;1.196531e+002
1.832072e+003;1.196458e+002
1.834001e+003;1.196401e+002
1.835929e+003;1.196258e+002
1.837858e+003;1.196210e+002
1.839786e+003;1.196174e+002
1.841715e+003;1.196074e+002
1.843643e+003;1.195953e+002
1.845572e+003;1.195782e+002
1.847500e+003;1.195612e+002
1.849429e+003;1.195587e+002
1.851357e+003;1.195516e+002
1.853286e+003;1.195430e+002
1.855214e+003;1.195355e+002
1.857143e+003;1.195175e+002
1.859071e+003;1.195010e+002
1.861000e+003;1.194928e+002
1.862928e+003;1.194788e+002
1.864857e+003;1.194713e+002
1.866785e+003;1.194647e+002
1.868714e+003;1.194491e+002
1.870642e+003;1.194364e+002
1.872571e+003;1.194202e+002
1.874499e+003;1.194056e+002
1.876428e+003;1.194017e+002
1.878356e+003;1.193902e+002
1.880285e+003;1.193729e+002
1.882213e+003;1.193629e+002
1.884142e+003;1.193511e+002
1.886070e+003;1.193326e+002
1.887999e+003;1.193155e+002
1.889927e+003;1.192999e+002
1.891856e+003;1.192906e+002
1.893784e+003;1.192724e+002
1.895713e+003;1.192450e+002
1.897641e+003;1.192237e+002
1.899570e+003;1.192066e+002
1.901498e+003;1.191849e+002
1.903427e+003;1.191576e+002
1.905355e+003;1.191237e+002
1.907284e+003;1.190958e+002
1.909212e+003;1.190692e+002
1.911141e+003;1.190295e+002
1.913069e+003;1.189877e+002
1.914998e+003;1.189536e+002
1.916926e+003;1.189135e+002
1.918855e+003;1.188621e+002
1.920783e+003;1.188016e+002
1.922712e+003;1.187449e+002
1.924640e+003;1.186955e+002
1.926569e+003;1.186361e+002
1.928497e+003;1.185628e+002
1.930426e+003;1.184902e+002
1.932354e+003;1.184126e+002
1.934283e+003;1.183322e+002
1.936211e+003;1.182487e+002
1.938140e+003;1.181561e+002
1.940068e+003;1.180677e+002
1.941997e+003;1.179761e+002
1.943925e+003;1.178687e+002
1.945854e+003;1.177595e+002
1.947782e+003;1.176511e+002
1.949711e+003;1.175404e+002
1.951639e+003;1.174295e+002
1.953568e+003;1.173087e+002
1.955496e+003;1.171879e+002
1.957425e+003;1.170742e+002
1.959353e+003;1.169516e+002
1.961282e+003;1.168250e+002
1.963210e+003;1.167016e+002
1.965139e+003;1.165776e+002
1.967067e+003;1.164584e+002
1.968996e+003;1.163357e+002
1.970924e+003;1.162042e+002
1.972853e+003;1.160947e+002
1.974781e+003;1.159927e+002
1.976710e+003;1.158752e+002
1.978638e+003;1.157606e+002
1.980567e+003;1.156572e+002
1.982495e+003;1.155555e+002
1.984424e+003;1.154663e+002
1.986352e+003;1.153783e+002
1.988281e+003;1.152936e+002
1.990209e+003;1.152290e+002
1.992138e+003;1.151601e+002
1.994066e+003;1.150889e+002
1.995995e+003;1.150364e+002
1.997923e+003;1.149908e+002
1.999852e+003;1.149581e+002
2.001780e+003;1.149312e+002
2.003709e+003;1.148969e+002
2.005637e+003;1.148816e+002
2.007566e+003;1.148829e+002
2.009494e+003;1.148711e+002
2.011423e+003;1.148673e+002
2.013351e+003;1.148743e+002
2.015280e+003;1.148798e+002
2.017208e+003;1.148962e+002
2.019137e+003;1.149068e+002
2.021065e+003;1.149171e+002
2.022994e+003;1.149517e+002
2.024922e+003;1.149763e+002
2.026851e+003;1.149847e+002
2.028779e+003;1.150119e+002
2.030708e+003;1.150352e+002
2.032636e+003;1.150552e+002
2.034565e+003;1.150839e+002
2.036493e+003;1.150882e+002
2.038422e+003;1.151024e+002
2.040350e+003;1.151358e+002
2.042279e+003;1.151401e+002
2.044207e+003;1.151497e+002
2.046135e+003;1.151755e+002
2.048064e+003;1.151767e+002
2.049992e+003;1.151879e+002
2.051921e+003;1.151954e+002
2.053850e+003;1.151810e+002
2.055778e+003;1.152036e+002
2.057707e+003;1.152231e+002
2.059635e+003;1.152077e+002
2.061563e+003;1.152216e+002
2.063492e+003;1.152284e+002
2.065420e+003;1.152285e+002
2.067349e+003;1.152617e+002
2.069278e+003;1.152689e+002
2.071206e+003;1.152803e+002
2.073135e+003;1.153331e+002
2.075063e+003;1.153463e+002
2.076991e+003;1.153649e+002
2.078920e+003;1.154244e+002
2.080848e+003;1.154564e+002
2.082777e+003;1.155117e+002
2.084706e+003;1.155833e+002
2.086634e+003;1.156129e+002
2.088563e+003;1.156850e+002
2.090491e+003;1.157719e+002
2.092419e+003;1.158196e+002
2.094348e+003;1.159154e+002
2.096276e+003;1.160126e+002
2.098205e+003;1.160861e+002
2.100134e+003;1.162034e+002
2.102062e+003;1.162884e+002
2.103990e+003;1.163625e+002
2.105919e+003;1.164972e+002
2.107847e+003;1.165853e+002
2.109776e+003;1.166616e+002
2.111704e+003;1.167889e+002
2.113633e+003;1.168642e+002
2.115562e+003;1.169483e+002
2.117490e+003;1.170621e+002
2.119418e+003;1.171128e+002
2.121347e+003;1.172014e+002
2.123275e+003;1.173116e+002
2.125204e+003;1.173443e+002
2.127132e+003;1.174206e+002
2.129061e+003;1.175084e+002
2.130990e+003;1.175401e+002
2.132918e+003;1.176195e+002
2.134846e+003;1.176700e+002
2.136775e+003;1.176800e+002
2.138703e+003;1.177632e+002
2.140632e+003;1.177986e+002
2.142560e+003;1.178062e+002
2.144489e+003;1.178778e+002
2.146417e+003;1.178831e+002
2.148346e+003;1.178862e+002
2.150274e+003;1.179426e+002
2.152203e+003;1.179237e+002
2.154131e+003;1.179367e+002
2.156060e+003;1.179880e+002
2.157988e+003;1.179528e+002
2.159917e+003;1.179590e+002
2.161845e+003;1.179850e+002
2.163774e+003;1.179361e+002
2.165702e+003;1.179564e+002
2.167631e+003;1.179650e+002
2.169559e+003;1.179082e+002
2.171488e+003;1.179349e+002
2.173416e+003;1.179172e+002
2.175345e+003;1.178530e+002
2.177273e+003;1.178795e+002
2.179202e+003;1.178496e+002
2.181130e+003;1.178008e+002
2.183059e+003;1.178236e+002
2.184987e+003;1.177581e+002
2.186916e+003;1.177122e+002
2.188844e+003;1.177327e+002
2.190773e+003;1.176602e+002
2.192701e+003;1.176379e+002
2.194630e+003;1.176466e+002
2.196558e+003;1.175619e+002
2.198487e+003;1.175476e+002
2.200415e+003;1.175341e+002
2.202344e+003;1.174488e+002
2.204272e+003;1.174615e+002
2.206201e+003;1.174400e+002
2.208129e+003;1.173482e+002
2.210058e+003;1.173520e+002
2.211986e+003;1.173097e+002
2.213915e+003;1.172386e+002
2.215843e+003;1.172581e+002
2.217772e+003;1.171950e+002
2.219700e+003;1.171324e+002
2.221629e+003;1.171494e+002
2.223557e+003;1.170650e+002
2.225486e+003;1.170218e+002
2.227414e+003;1.170377e+002
2.229343e+003;1.169502e+002
2.231271e+003;1.169308e+002
2.233200e+003;1.169241e+002
2.235128e+003;1.168164e+002
2.237057e+003;1.168169e+002
2.238985e+003;1.168021e+002
2.240914e+003;1.167056e+002
2.242842e+003;1.167223e+002
2.244771e+003;1.166791e+002
2.246699e+003;1.165901e+002
2.248628e+003;1.166138e+002
2.250556e+003;1.165429e+002
2.252485e+003;1.164740e+002
2.254413e+003;1.165147e+002
2.256342e+003;1.164255e+002
2.258270e+003;1.163676e+002
2.260199e+003;1.163899e+002
2.262127e+003;1.162901e+002
2.264056e+003;1.162694e+002
2.265984e+003;1.162817e+002
2.267913e+003;1.161677e+002
2.269841e+003;1.161674e+002
2.271770e+003;1.161558e+002
2.273698e+003;1.160409e+002
2.275627e+003;1.160601e+002
2.277555e+003;1.160271e+002
2.279484e+003;1.159279e+002
2.281412e+003;1.159605e+002
2.283341e+003;1.158916e+002
2.285269e+003;1.158036e+002
2.287198e+003;1.158465e+002
2.289126e+003;1.157635e+002
2.291055e+003;1.156967e+002
2.292983e+003;1.157264e+002
2.294912e+003;1.156207e+002
2.296840e+003;1.155859e+002
2.298769e+003;1.156112e+002
2.300697e+003;1.154936e+002
2.302626e+003;1.154877e+002
2.304554e+003;1.154926e+002
2.306483e+003;1.153635e+002
2.308411e+003;1.153719e+002
2.310340e+003;1.153441e+002
2.312268e+003;1.152299e+002
2.314197e+003;1.152718e+002
2.316125e+003;1.152203e+002
2.318054e+003;1.151059e+002
2.319982e+003;1.151440e+002
2.321911e+003;1.150681e+002
2.323839e+003;1.149902e+002
2.325768e+003;1.150321e+002
2.327696e+003;1.149313e+002
2.329625e+003;1.148810e+002
2.331553e+003;1.149055e+002
2.333482e+003;1.147789e+002
2.335410e+003;1.147605e+002
2.337339e+003;1.147826e+002
2.339267e+003;1.146538e+002
2.341196e+003;1.146533e+002
2.343124e+003;1.146455e+002
2.345053e+003;1.145098e+002
2.346981e+003;1.145422e+002
2.348910e+003;1.145032e+002
2.350838e+003;1.143768e+002
2.352767e+003;1.144313e+002
2.354695e+003;1.143575e+002
2.356624e+003;1.142412e+002
2.358552e+003;1.142896e+002
2.360481e+003;1.141953e+002
2.362409e+003;1.141253e+002
2.364338e+003;1.141772e+002
2.366266e+003;1.140452e+002
2.368195e+003;1.140025e+002
2.370123e+003;1.140437e+002
2.372052e+003;1.139004e+002
2.373980e+003;1.138939e+002
2.375908e+003;1.139095e+002
2.377837e+003;1.137597e+002
2.379766e+003;1.137797e+002
2.381694e+003;1.137546e+002
2.383623e+003;1.136085e+002
2.385551e+003;1.136664e+002
2.387479e+003;1.136205e+002
2.389408e+003;1.134890e+002
2.391336e+003;1.135435e+002
2.393265e+003;1.134504e+002
2.395194e+003;1.133503e+002
2.397122e+003;1.134170e+002
2.399051e+003;1.132928e+002
2.400979e+003;1.132241e+002
2.402907e+003;1.132808e+002
2.404836e+003;1.131301e+002
2.406764e+003;1.130945e+002
2.408693e+003;1.131300e+002
2.410622e+003;1.129745e+002
2.412550e+003;1.129858e+002
2.414479e+003;1.129856e+002
2.416407e+003;1.128175e+002
2.418335e+003;1.128549e+002
2.420264e+003;1.128248e+002
2.422192e+003;1.126750e+002
2.424121e+003;1.127331e+002
2.426050e+003;1.126606e+002
2.427978e+003;1.125347e+002
2.429906e+003;1.125995e+002
2.431835e+003;1.124823e+002
2.433763e+003;1.123935e+002
2.435692e+003;1.124707e+002
2.437620e+003;1.123296e+002
2.439549e+003;1.122686e+002
2.441478e+003;1.123161e+002
2.443406e+003;1.121520e+002
2.445334e+003;1.121403e+002
2.447263e+003;1.121708e+002
2.449191e+003;1.119978e+002
2.451120e+003;1.120187e+002
2.453048e+003;1.120057e+002
2.454977e+003;1.118332e+002
2.456906e+003;1.118812e+002
2.458834e+003;1.118314e+002
2.460762e+003;1.116879e+002
2.462691e+003;1.117625e+002
2.464619e+003;1.116609e+002
2.466548e+003;1.115363e+002
2.468476e+003;1.116123e+002
2.470405e+003;1.114845e+002
2.472333e+003;1.114076e+002
2.474262e+003;1.114739e+002
2.476190e+003;1.113119e+002
2.478119e+003;1.112718e+002
2.480047e+003;1.113127e+002
2.481976e+003;1.111350e+002
2.483904e+003;1.111460e+002
2.485833e+003;1.111628e+002
2.487761e+003;1.109787e+002
2.489690e+003;1.110089e+002
2.491618e+003;1.109757e+002
2.493547e+003;1.108125e+002
2.495475e+003;1.108833e+002
2.497404e+003;1.108078e+002
2.499332e+003;1.106660e+002
2.501261e+003;1.107462e+002
2.503189e+003;1.106246e+002
2.505118e+003;1.105161e+002
2.507046e+003;1.105944e+002
2.508975e+003;1.104437e+002
2.510903e+003;1.103825e+002
2.512832e+003;1.104393e+002
2.514760e+003;1.102526e+002
2.516689e+003;1.102341e+002
2.518617e+003;1.102748e+002
2.520546e+003;1.100918e+002
2.522474e+003;1.101101e+002
2.524403e+003;1.100998e+002
2.526331e+003;1.099156e+002
2.528260e+003;1.099693e+002
2.530188e+003;1.099145e+002
2.532117e+003;1.097534e+002
2.534045e+003;1.098369e+002
2.535974e+003;1.097361e+002
2.537902e+003;1.095976e+002
2.539831e+003;1.096823e+002
2.541759e+003;1.095455e+002
2.543688e+003;1.094590e+002
2.545616e+003;1.095376e+002
2.547545e+003;1.093589e+002
2.549473e+003;1.093138e+002
2.551402e+003;1.093695e+002
2.553330e+003;1.091738e+002
2.555259e+003;1.091784e+002
2.557187e+003;1.092012e+002
2.559116e+003;1.090036e+002
2.561044e+003;1.090450e+002
2.562973e+003;1.090150e+002
2.564901e+003;1.088290e+002
2.566830e+003;1.089111e+002
2.568758e+003;1.088369e+002
2.570687e+003;1.086741e+002
2.572615e+003;1.087575e+002
2.574544e+003;1.086309e+002
2.576472e+003;1.085107e+002
2.578401e+003;1.086020e+002
2.580329e+003;1.084406e+002
2.582258e+003;1.083706e+002
2.584186e+003;1.084473e+002
2.586115e+003;1.082538e+002
2.588043e+003;1.082207e+002
2.589972e+003;1.082622e+002
2.591900e+003;1.080623e+002
2.593829e+003;1.080891e+002
2.595757e+003;1.080904e+002
2.597686e+003;1.078842e+002
2.599614e+003;1.079407e+002
2.601543e+003;1.078943e+002
2.603471e+003;1.077123e+002
2.605400e+003;1.077984e+002
2.607328e+003;1.077026e+002
2.609257e+003;1.075550e+002
2.611185e+003;1.076474e+002
2.613114e+003;1.074995e+002
2.615042e+003;1.073946e+002
2.616971e+003;1.074889e+002
2.618899e+003;1.073099e+002
2.620828e+003;1.072470e+002
2.622756e+003;1.073054e+002
2.624685e+003;1.071041e+002
2.626613e+003;1.071067e+002
2.628542e+003;1.071361e+002
2.630470e+003;1.069196e+002
2.632399e+003;1.069586e+002
2.634327e+003;1.069411e+002
2.636256e+003;1.067376e+002
2.638184e+003;1.068101e+002
2.640113e+003;1.067426e+002
2.642041e+003;1.065723e+002
2.643970e+003;1.066697e+002
2.645898e+003;1.065457e+002
2.647827e+003;1.064062e+002
2.649755e+003;1.065028e+002
2.651684e+003;1.063385e+002
2.653612e+003;1.062518e+002
2.655541e+003;1.063326e+002
2.657469e+003;1.061349e+002
2.659398e+003;1.061055e+002
2.661326e+003;1.061551e+002
2.663255e+003;1.059395e+002
2.665183e+003;1.059615e+002
2.667112e+003;1.059687e+002
2.669040e+003;1.057529e+002
2.670969e+003;1.058090e+002
2.672897e+003;1.057639e+002
2.674826e+003;1.055723e+002
2.676754e+003;1.056638e+002
2.678683e+003;1.055680e+002
2.680611e+003;1.054043e+002
2.682540e+003;1.055016e+002
2.684468e+003;1.053535e+002
2.686397e+003;1.052370e+002
2.688325e+003;1.053323e+002
2.690254e+003;1.051505e+002
2.692182e+003;1.050904e+002
2.694111e+003;1.051583e+002
2.696039e+003;1.049452e+002
2.697968e+003;1.049343e+002
2.699896e+003;1.049678e+002
2.701825e+003;1.047501e+002
2.703753e+003;1.047857e+002
2.705682e+003;1.047699e+002
2.707610e+003;1.045602e+002
2.709539e+003;1.046355e+002
2.711467e+003;1.045688e+002
2.713396e+003;1.043871e+002
2.715324e+003;1.044848e+002
2.717253e+003;1.043634e+002
2.719181e+003;1.042188e+002
2.721110e+003;1.043179e+002
2.723038e+003;1.041532e+002
2.724967e+003;1.040636e+002
2.726895e+003;1.041522e+002
2.728823e+003;1.039512e+002
2.730752e+003;1.039118e+002
2.732681e+003;1.039654e+002
2.734609e+003;1.037461e+002
2.736538e+003;1.037590e+002
2.738466e+003;1.037740e+002
2.740395e+003;1.035596e+002
2.742323e+003;1.036133e+002
2.744251e+003;1.035696e+002
2.746180e+003;1.033717e+002
2.748109e+003;1.034616e+002
2.750037e+003;1.033672e+002
2.751966e+003;1.031989e+002
2.753894e+003;1.032993e+002
2.755823e+003;1.031604e+002
2.757751e+003;1.030396e+002
2.759679e+003;1.031325e+002
2.761608e+003;1.029491e+002
2.763537e+003;1.028834e+002
2.765465e+003;1.029596e+002
2.767394e+003;1.027497e+002
2.769322e+003;1.027319e+002
2.771250e+003;1.027654e+002
2.773179e+003;1.025458e+002
2.775107e+003;1.025763e+002
2.777036e+003;1.025650e+002
2.778965e+003;1.023528e+002
2.780893e+003;1.024204e+002
2.782822e+003;1.023604e+002
2.784750e+003;1.021758e+002
2.786678e+003;1.022655e+002
2.788607e+003;1.021501e+002
2.790535e+003;1.020020e+002
2.792464e+003;1.020975e+002
2.794393e+003;1.019335e+002
2.796321e+003;1.018347e+002
2.798250e+003;1.019236e+002
2.800178e+003;1.017289e+002
2.802106e+003;1.016817e+002
2.804035e+003;1.017381e+002
2.805963e+003;1.015241e+002
2.807892e+003;1.015336e+002
2.809821e+003;1.015505e+002
2.811749e+003;1.013302e+002
2.813677e+003;1.013748e+002
2.815606e+003;1.013371e+002
2.817534e+003;1.011416e+002
2.819463e+003;1.012255e+002
2.821391e+003;1.011351e+002
2.823320e+003;1.009660e+002
2.825249e+003;1.010595e+002
2.827177e+003;1.009180e+002
2.829105e+003;1.007940e+002
2.831034e+003;1.008858e+002
2.832962e+003;1.007051e+002
2.834891e+003;1.006386e+002
2.836819e+003;1.007095e+002
2.838748e+003;1.004963e+002
2.840677e+003;1.004782e+002
2.842605e+003;1.005129e+002
2.844533e+003;1.002888e+002
2.846462e+003;1.003180e+002
2.848390e+003;1.003085e+002
2.850319e+003;1.000955e+002
2.852247e+003;1.001642e+002
2.854176e+003;1.001053e+002
2.856104e+003;9.991649e+001
2.858033e+003;1.000073e+002
2.859961e+003;9.989108e+001
2.861890e+003;9.974110e+001
2.863818e+003;9.983647e+001
2.865747e+003;9.967386e+001
2.867675e+003;9.957531e+001
2.869604e+003;9.966522e+001
2.871532e+003;9.946760e+001
2.873461e+003;9.941415e+001
2.875389e+003;9.946936e+001
2.877318e+003;9.925816e+001
2.879246e+003;9.926205e+001
2.881175e+003;9.927866e+001
2.883103e+003;9.906262e+001
2.885032e+003;9.910440e+001
2.886960e+003;9.906927e+001
2.888889e+003;9.886718e+001
2.890817e+003;9.894718e+001
2.892746e+003;9.887032e+001
2.894674e+003;9.869642e+001
2.896603e+003;9.878349e+001
2.898531e+003;9.864879e+001
2.900460e+003;9.851566e+001
2.902388e+003;9.860446e+001
2.904317e+003;9.843789e+001
2.906245e+003;9.835936e+001
2.908174e+003;9.842793e+001
2.910102e+003;9.822652e+001
2.912031e+003;9.819694e+001
2.913959e+003;9.823109e+001
2.915888e+003;9.801789e+001
2.917816e+003;9.803843e+001
2.919745e+003;9.803319e+001
2.921673e+003;9.782522e+001
2.923602e+003;9.788099e+001
2.925530e+003;9.782170e+001
2.927459e+003;9.763673e+001
2.929387e+003;9.771918e+001
2.931316e+003;9.761195e+001
2.933244e+003;9.746413e+001
2.935173e+003;9.755653e+001
2.937101e+003;9.740248e+001
2.939030e+003;9.729965e+001
2.940958e+003;9.737811e+001
2.942887e+003;9.719103e+001
2.944815e+003;9.714314e+001
2.946744e+003;9.719888e+001
2.948672e+003;9.698992e+001
2.950601e+003;9.698970e+001
2.952529e+003;9.700110e+001
2.954458e+003;9.678648e+001
2.956386e+003;9.682961e+001
2.958315e+003;9.679673e+001
2.960243e+003;9.659604e+001
2.962172e+003;9.667297e+001
2.964100e+003;9.659264e+001
2.966029e+003;9.641993e+001
2.967957e+003;9.650889e+001
2.969886e+003;9.637845e+001
2.971814e+003;9.624776e+001
2.973743e+003;9.633600e+001
2.975671e+003;9.616809e+001
2.977600e+003;9.608935e+001
2.979528e+003;9.616087e+001
2.981457e+003;9.596025e+001
2.983385e+003;9.592489e+001
2.985314e+003;9.596684e+001
2.987242e+003;9.575514e+001
2.989171e+003;9.576997e+001
2.991099e+003;9.577058e+001
2.993028e+003;9.556907e+001
2.994956e+003;9.561960e+001
2.996885e+003;9.556239e+001
2.998813e+003;9.537534e+001
3.000742e+003;9.545562e+001
3.002670e+003;9.535754e+001
3.004599e+003;9.520790e+001
3.006527e+003;9.529292e+001
3.008456e+003;9.514977e+001
3.010384e+003;9.504590e+001
3.012313e+003;9.511903e+001
3.014241e+003;9.493851e+001
3.016170e+003;9.488242e+001
3.018098e+003;9.492896e+001
3.020027e+003;9.473339e+001
3.021955e+003;9.472791e+001
3.023884e+003;9.474004e+001
3.025812e+003;9.453842e+001
3.027741e+003;9.457498e+001
3.029669e+003;9.454033e+001
3.031598e+003;9.435400e+001
3.033526e+003;9.441312e+001
3.035455e+003;9.433042e+001
3.037383e+003;9.417593e+001
3.039312e+003;9.425194e+001
3.041240e+003;9.412299e+001
3.043169e+003;9.400838e+001
3.045097e+003;9.408479e+001
3.047026e+003;9.391661e+001
3.048954e+003;9.384146e+001
3.050883e+003;9.390320e+001
3.052811e+003;9.371400e+001
3.054740e+003;9.368481e+001
3.056668e+003;9.370972e+001
3.058597e+003;9.351028e+001
3.060525e+003;9.353459e+001
3.062454e+003;9.352324e+001
3.064382e+003;9.332468e+001
3.066311e+003;9.337661e+001
3.068239e+003;9.332257e+001
3.070167e+003;9.314993e+001
3.072096e+003;9.321654e+001
3.074025e+003;9.311195e+001
3.075953e+003;9.297500e+001
3.077882e+003;9.305260e+001
3.079810e+003;9.290785e+001
3.081739e+003;9.280688e+001
3.083667e+003;9.287908e+001
3.085595e+003;9.271355e+001
3.087524e+003;9.265645e+001
3.089453e+003;9.269664e+001
3.091381e+003;9.251218e+001
3.093310e+003;9.250842e+001
3.095238e+003;9.251463e+001
3.097167e+003;9.232123e+001
3.099095e+003;9.234495e+001
3.101023e+003;9.231470e+001
3.102952e+003;9.213978e+001
3.104881e+003;9.218672e+001
3.106809e+003;9.210819e+001
3.108738e+003;9.196529e+001
3.110666e+003;9.203144e+001
3.112594e+003;9.191389e+001
3.114523e+003;9.179672e+001
3.116451e+003;9.185839e+001
3.118380e+003;9.171750e+001
3.120309e+003;9.164610e+001
3.122237e+003;9.168307e+001
3.124166e+003;9.151719e+001
3.126094e+003;9.149274e+001
3.128022e+003;9.150855e+001
3.129951e+003;9.132113e+001
3.131879e+003;9.132613e+001
3.133808e+003;9.131147e+001
3.135737e+003;9.114622e+001
3.137665e+003;9.118094e+001
3.139594e+003;9.111387e+001
3.141522e+003;9.096940e+001
3.143450e+003;9.103756e+001
3.145379e+003;9.092726e+001
3.147307e+003;9.079631e+001
3.149236e+003;9.086431e+001
3.151165e+003;9.073749e+001
3.153093e+003;9.064503e+001
3.155021e+003;9.068668e+001
3.156950e+003;9.052315e+001
3.158878e+003;9.048828e+001
3.160807e+003;9.052289e+001
3.162735e+003;9.034050e+001
3.164664e+003;9.032570e+001
3.166593e+003;9.033166e+001
3.168521e+003;9.015948e+001
3.170449e+003;9.017801e+001
3.172378e+003;9.014263e+001
3.174306e+003;8.998854e+001
3.176235e+003;9.003652e+001
3.178163e+003;8.995406e+001
3.180092e+003;8.980579e+001
3.182021e+003;8.986645e+001
3.183949e+003;8.976410e+001
3.185877e+003;8.965314e+001
3.187806e+003;8.969300e+001
3.189734e+003;8.955550e+001
3.191663e+003;8.949253e+001
3.193591e+003;8.953368e+001
3.195520e+003;8.937272e+001
3.197448e+003;8.933716e+001
3.199377e+003;8.936260e+001
3.201305e+003;8.921258e+001
3.203234e+003;8.919908e+001
3.205162e+003;8.916380e+001
3.207091e+003;8.901235e+001
3.209019e+003;8.904842e+001
3.210948e+003;8.899162e+001
3.212876e+003;8.884644e+001
3.214805e+003;8.888042e+001
3.216733e+003;8.879754e+001
3.218662e+003;8.868964e+001
3.220590e+003;8.872382e+001
3.222519e+003;8.860023e+001
3.224447e+003;8.853426e+001
3.226376e+003;8.856915e+001
3.228304e+003;8.841317e+001
3.230233e+003;8.836319e+001
3.232161e+003;8.838968e+001
3.234090e+003;8.824618e+001
3.236018e+003;8.822687e+001
3.237947e+003;8.820067e+001
3.239875e+003;8.805647e+001
3.241804e+003;8.808363e+001
3.243732e+003;8.803328e+001
3.245661e+003;8.788111e+001
3.247589e+003;8.792007e+001
3.249518e+003;8.784836e+001
3.251446e+003;8.772930e+001
3.253375e+003;8.776791e+001
3.255303e+003;8.766373e+001
3.257232e+003;8.757956e+001
3.259160e+003;8.761810e+001
3.261089e+003;8.747428e+001
3.263017e+003;8.740639e+001
3.264946e+003;8.744380e+001
3.266874e+003;8.731170e+001
3.268803e+003;8.726830e+001
3.270731e+003;8.726417e+001
3.272660e+003;8.712180e+001
3.274588e+003;8.712703e+001
3.276517e+003;8.710017e+001
3.278445e+003;8.695217e+001
3.280374e+003;8.696751e+001
3.282302e+003;8.692634e+001
3.284231e+003;8.680483e+001
3.286159e+003;8.681637e+001
3.288088e+003;8.672754e+001
3.290016e+003;8.663641e+001
3.291945e+003;8.666634e+001
3.293873e+003;8.655781e+001
3.295802e+003;8.647646e+001
3.297730e+003;8.650122e+001
3.299659e+003;8.639204e+001
3.301587e+003;8.633855e+001
3.303516e+003;8.632552e+001
3.305444e+003;8.621229e+001
3.307373e+003;8.620834e+001
3.309301e+003;8.618090e+001
3.311230e+003;8.604173e+001
3.313158e+003;8.604241e+001
3.315087e+003;8.599992e+001
3.317015e+003;8.588651e+001
3.318944e+003;8.589316e+001
3.320872e+003;8.581834e+001
3.322801e+003;8.573360e+001
3.324729e+003;8.575984e+001
3.326658e+003;8.564255e+001
3.328586e+003;8.555946e+001
3.330515e+003;8.558732e+001
3.332443e+003;8.548912e+001
3.334372e+003;8.543800e+001
3.336300e+003;8.542656e+001
3.338229e+003;8.530271e+001
3.340157e+003;8.529544e+001
3.342086e+003;8.528027e+001
3.344014e+003;8.513826e+001
3.345943e+003;8.513155e+001
3.347871e+003;8.511414e+001
3.349800e+003;8.499953e+001
3.351728e+003;8.499892e+001
3.353657e+003;8.493245e+001
3.355585e+003;8.483768e+001
3.357514e+003;8.486108e+001
3.359442e+003;8.477209e+001
3.361371e+003;8.467017e+001
3.363299e+003;8.469577e+001
3.365228e+003;8.461882e+001
3.367156e+003;8.454848e+001
3.369085e+003;8.453236e+001
3.371013e+003;8.443046e+001
3.372942e+003;8.440260e+001
3.374870e+003;8.439552e+001
3.376799e+003;8.427562e+001
3.378727e+003;8.425158e+001
3.380656e+003;8.424039e+001
3.382584e+003;8.413667e+001
3.384513e+003;8.410141e+001
3.386441e+003;8.404992e+001
3.388370e+003;8.397529e+001
3.390298e+003;8.398546e+001
3.392227e+003;8.390286e+001
3.394155e+003;8.380962e+001
3.396083e+003;8.382272e+001
3.398012e+003;8.376205e+001
3.399941e+003;8.369330e+001
3.401869e+003;8.367353e+001
3.403798e+003;8.358221e+001
3.405726e+003;8.355608e+001
3.407655e+003;8.354079e+001
3.409583e+003;8.342544e+001
3.411511e+003;8.339636e+001
3.413440e+003;8.338854e+001
3.415369e+003;8.328942e+001
3.417297e+003;8.325454e+001
3.419226e+003;8.320134e+001
3.421154e+003;8.313218e+001
3.423083e+003;8.314257e+001
3.425011e+003;8.307018e+001
3.426939e+003;8.297207e+001
3.428868e+003;8.298683e+001
3.430797e+003;8.293015e+001
3.432725e+003;8.285770e+001
3.434654e+003;8.283006e+001
3.436582e+003;8.274751e+001
3.438510e+003;8.272034e+001
3.440439e+003;8.271472e+001
3.442367e+003;8.259735e+001
3.444296e+003;8.255296e+001
3.446225e+003;8.255831e+001
3.448153e+003;8.247812e+001
3.450082e+003;8.242784e+001
3.452010e+003;8.237911e+001
3.453938e+003;8.230493e+001
3.455867e+003;8.230922e+001
3.457795e+003;8.225960e+001
3.459724e+003;8.215955e+001
3.461653e+003;8.214722e+001
3.463581e+003;8.211717e+001
3.465510e+003;8.204857e+001
3.467438e+003;8.200966e+001
3.469366e+003;8.194437e+001
3.471295e+003;8.191170e+001
3.473223e+003;8.189395e+001
3.475152e+003;8.179874e+001
3.477081e+003;8.173931e+001
3.479009e+003;8.173524e+001
3.480938e+003;8.168298e+001
3.482866e+003;8.163370e+001
3.484794e+003;8.156841e+001
3.486723e+003;8.151125e+001
3.488651e+003;8.150596e+001
3.490580e+003;8.144247e+001
3.492509e+003;8.135156e+001
3.494437e+003;8.134381e+001
3.496365e+003;8.131364e+001
3.498294e+003;8.125703e+001
3.500222e+003;8.121288e+001
3.502151e+003;8.114012e+001
3.504079e+003;8.111384e+001
3.506008e+003;8.109710e+001
3.507937e+003;8.099699e+001
3.509865e+003;8.094846e+001
3.511793e+003;8.093916e+001
3.513722e+003;8.088342e+001
3.515650e+003;8.083697e+001
3.517579e+003;8.078355e+001
3.519507e+003;8.072701e+001
3.521436e+003;8.072577e+001
3.523365e+003;8.067158e+001
3.525293e+003;8.058058e+001
3.527221e+003;8.055789e+001
3.529150e+003;8.053808e+001
3.531078e+003;8.047095e+001
3.533007e+003;8.041561e+001
3.534935e+003;8.035989e+001
3.536864e+003;8.033122e+001
3.538792e+003;8.031123e+001
3.540721e+003;8.023968e+001
3.542649e+003;8.017757e+001
3.544578e+003;8.016462e+001
3.546506e+003;8.012604e+001
3.548435e+003;8.007034e+001
3.550363e+003;8.000504e+001
3.552292e+003;7.995924e+001
3.554220e+003;7.994646e+001
3.556149e+003;7.990133e+001
3.558077e+003;7.981905e+001
3.560006e+003;7.978062e+001
3.561934e+003;7.976644e+001
3.563863e+003;7.972420e+001
3.565791e+003;7.965032e+001
3.567720e+003;7.958873e+001
3.569648e+003;7.957742e+001
3.571577e+003;7.955717e+001
3.573505e+003;7.948562e+001
3.575434e+003;7.943124e+001
3.577362e+003;7.940372e+001
3.579291e+003;7.938004e+001
3.581219e+003;7.933112e+001
3.583148e+003;7.925359e+001
3.585076e+003;7.921668e+001
3.587005e+003;7.921796e+001
3.588933e+003;7.915749e+001
3.590862e+003;7.908302e+001
3.592790e+003;7.904580e+001
3.594719e+003;7.902683e+001
3.596647e+003;7.900082e+001
3.598576e+003;7.893021e+001
3.600504e+003;7.886063e+001
3.602433e+003;7.885677e+001
3.604361e+003;7.883594e+001
3.606290e+003;7.876328e+001
3.608218e+003;7.870185e+001
3.610147e+003;7.868482e+001
3.612075e+003;7.866479e+001
3.614004e+003;7.860743e+001
3.615932e+003;7.852637e+001
3.617861e+003;7.849461e+001
3.619789e+003;7.848945e+001
3.621718e+003;7.844370e+001
3.623646e+003;7.836850e+001
3.625575e+003;7.832174e+001
3.627503e+003;7.831071e+001
3.629432e+003;7.828928e+001
3.631360e+003;7.821229e+001
3.633289e+003;7.815583e+001
3.635217e+003;7.815795e+001
3.637146e+003;7.813261e+001
3.639074e+003;7.805708e+001
3.641003e+003;7.800019e+001
3.642931e+003;7.797277e+001
3.644860e+003;7.796458e+001
3.646788e+003;7.791684e+001
3.648717e+003;7.782962e+001
3.650645e+003;7.779617e+001
3.652574e+003;7.780376e+001
3.654502e+003;7.775595e+001
3.656431e+003;7.769189e+001
3.658359e+003;7.764535e+001
3.660288e+003;7.762109e+001
3.662216e+003;7.760548e+001
3.664145e+003;7.753120e+001
3.666073e+003;7.744983e+001
3.668002e+003;7.746838e+001
3.669930e+003;7.745169e+001
3.671859e+003;7.738021e+001
3.673787e+003;7.732700e+001
3.675716e+003;7.729333e+001
3.677644e+003;7.729276e+001
3.679573e+003;7.726512e+001
3.681501e+003;7.716102e+001
3.683430e+003;7.712601e+001
3.685358e+003;7.714281e+001
3.687287e+003;7.709586e+001
3.689215e+003;7.702955e+001
3.691144e+003;7.698666e+001
3.693072e+003;7.696273e+001
3.695001e+003;7.696472e+001
3.696929e+003;7.689095e+001
3.698858e+003;7.680936e+001
3.700786e+003;7.682148e+001
3.702715e+003;7.680904e+001
3.704643e+003;7.673394e+001
3.706572e+003;7.668480e+001
3.708500e+003;7.664143e+001
3.710429e+003;7.664455e+001
3.712357e+003;7.662889e+001
3.714286e+003;7.652168e+001
3.716214e+003;7.648093e+001
3.718143e+003;7.651354e+001
3.720071e+003;7.646404e+001
3.722000e+003;7.639783e+001
3.723928e+003;7.634641e+001
3.725857e+003;7.631538e+001
3.727785e+003;7.632605e+001
3.729714e+003;7.626044e+001
3.731642e+003;7.615873e+001
3.733571e+003;7.617178e+001
3.735499e+003;7.616539e+001
3.737427e+003;7.610156e+001
3.739356e+003;7.606065e+001
3.741285e+003;7.602317e+001
3.743213e+003;7.603063e+001
3.745142e+003;7.603867e+001
3.747070e+003;7.593121e+001
3.748999e+003;7.588799e+001
3.750927e+003;7.592783e+001
3.752855e+003;7.588423e+001
3.754784e+003;7.582150e+001
3.756713e+003;7.577805e+001
3.758641e+003;7.573916e+001
3.760570e+003;7.576654e+001
3.762498e+003;7.571163e+001
3.764427e+003;7.560358e+001
3.766355e+003;7.561914e+001
3.768283e+003;7.562870e+001
3.770212e+003;7.556115e+001
3.772141e+003;7.552331e+001
3.774069e+003;7.547593e+001
3.775998e+003;7.546988e+001
3.777926e+003;7.548360e+001
3.779854e+003;7.538084e+001
3.781783e+003;7.531951e+001
3.783711e+003;7.536237e+001
3.785640e+003;7.531396e+001
3.787569e+003;7.525269e+001
3.789497e+003;7.521583e+001
3.791426e+003;7.517478e+001
3.793354e+003;7.520482e+001
3.795282e+003;7.516900e+001
3.797211e+003;7.504708e+001
3.799139e+003;7.506255e+001
3.801068e+003;7.508078e+001
3.802997e+003;7.500385e+001
3.804925e+003;7.495705e+001
3.806854e+003;7.491495e+001
3.808782e+003;7.490205e+001
3.810710e+003;7.493018e+001
3.812639e+003;7.482784e+001
3.814567e+003;7.474990e+001
3.816496e+003;7.480911e+001
3.818425e+003;7.477958e+001
3.820353e+003;7.469897e+001
3.822281e+003;7.466936e+001
3.824210e+003;7.462584e+001
3.826138e+003;7.465572e+001
3.828067e+003;7.463345e+001
3.829995e+003;7.450917e+001
3.831924e+003;7.451102e+001
3.833853e+003;7.454794e+001
3.835781e+003;7.447226e+001
3.837709e+003;7.442176e+001
3.839638e+003;7.437742e+001
3.841566e+003;7.436537e+001
3.843495e+003;7.439929e+001
3.845423e+003;7.431027e+001
3.847352e+003;7.422337e+001
3.849281e+003;7.427629e+001
3.851209e+003;7.424999e+001
3.853137e+003;7.418062e+001
3.855066e+003;7.414548e+001
3.856994e+003;7.409173e+001
3.858923e+003;7.412309e+001
3.860851e+003;7.411884e+001
3.862780e+003;7.398270e+001
3.864708e+003;7.399124e+001
3.866637e+003;7.403765e+001
3.868565e+003;7.396006e+001
3.870494e+003;7.391618e+001
3.872422e+003;7.386807e+001
3.874351e+003;7.383589e+001
3.876279e+003;7.388972e+001
3.878208e+003;7.379867e+001
3.880136e+003;7.370697e+001
3.882065e+003;7.378229e+001
3.883993e+003;7.376762e+001
3.885922e+003;7.367937e+001
3.887850e+003;7.365955e+001
3.889779e+003;7.360124e+001
3.891707e+003;7.361509e+001
3.893636e+003;7.362699e+001
3.895564e+003;7.348605e+001
3.897493e+003;7.346920e+001
3.899421e+003;7.354121e+001
3.901350e+003;7.346906e+001
3.903278e+003;7.341000e+001
3.905207e+003;7.338091e+001
3.907135e+003;7.334949e+001
3.909064e+003;7.339247e+001
3.910992e+003;7.333037e+001
3.912921e+003;7.321432e+001
3.914849e+003;7.327231e+001
3.916778e+003;7.327763e+001
3.918706e+003;7.319670e+001
3.920635e+003;7.316484e+001
3.922563e+003;7.312041e+001
3.924492e+003;7.312920e+001
3.926420e+003;7.315114e+001
3.928349e+003;7.302113e+001
3.930277e+003;7.299841e+001
3.932206e+003;7.306593e+001
3.934134e+003;7.301054e+001
3.936063e+003;7.295705e+001
3.937991e+003;7.291899e+001
3.939920e+003;7.286987e+001
3.941848e+003;7.293320e+001
3.943777e+003;7.287894e+001
3.945705e+003;7.273844e+001
3.947634e+003;7.280227e+001
3.949562e+003;7.283133e+001
3.951491e+003;7.274001e+001
3.953419e+003;7.272573e+001
3.955348e+003;7.267143e+001
3.957276e+003;7.267629e+001
3.959205e+003;7.272738e+001
3.961133e+003;7.258638e+001
3.963062e+003;7.252520e+001
3.964990e+003;7.262007e+001
3.966919e+003;7.255762e+001
3.968847e+003;7.250495e+001
3.970776e+003;7.249306e+001
3.972704e+003;7.243299e+001
3.974633e+003;7.248379e+001
3.976561e+003;7.245922e+001
3.978490e+003;7.230567e+001
3.980418e+003;7.236317e+001
3.982347e+003;7.240520e+001
3.984275e+003;7.230337e+001
3.986204e+003;7.228101e+001
3.988132e+003;7.225274e+001
3.990061e+003;7.223818e+001
3.991989e+003;7.230050e+001
3.993918e+003;7.218826e+001
3.995846e+003;7.210897e+001
3.997775e+003;7.220457e+001
3.999703e+003;7.217022e+001
