3.991989e+002;5.081461e+001
4.011274e+002;5.059821e+001
4.030559e+002;5.018307e+001
4.049844e+002;5.008041e+001
4.069129e+002;4.987638e+001
4.088414e+002;4.969652e+001
4.107699e+002;4.991055e+001
4.126984e+002;4.986040e+001
4.146269e+002;4.983355e+001
4.165554e+002;4.964239e+001
4.184839e+002;4.959621e+001
4.204124e+002;4.942469e+001
4.223409e+002;4.915790e+001
4.242694e+002;4.916208e+001
4.261979e+002;4.906703e+001
4.281264e+002;4.890187e+001
4.300549e+002;4.867873e+001
4.319834e+002;4.832616e+001
4.339119e+002;4.794244e+001
4.358404e+002;4.769516e+001
4.377689e+002;4.752541e+001
4.396974e+002;4.733280e+001
4.416259e+002;4.697561e+001
4.435544e+002;4.667598e+001
4.454829e+002;4.636811e+001
4.474114e+002;4.612901e+001
4.493399e+002;4.584718e+001
4.512684e+002;4.559779e+001
4.531969e+002;4.536896e+001
4.551254e+002;4.527330e+001
4.570539e+002;4.521828e+001
4.589824e+002;4.519026e+001
4.609109e+002;4.520074e+001
4.628394e+002;4.526025e+001
4.647679e+002;4.546099e+001
4.666964e+002;4.573782e+001
4.686248e+002;4.617286e+001
4.705533e+002;4.654453e+001
4.724818e+002;4.684980e+001
4.744103e+002;4.733068e+001
4.763388e+002;4.775669e+001
4.782673e+002;4.811390e+001
4.801958e+002;4.833036e+001
4.821243e+002;4.843158e+001
4.840528e+002;4.849398e+001
4.859813e+002;4.857888e+001
4.879098e+002;4.864251e+001
4.898383e+002;4.870860e+001
4.917668e+002;4.875368e+001
4.936953e+002;4.878985e+001
4.956238e+002;4.877380e+001
4.975523e+002;4.872292e+001
4.994808e+002;4.860278e+001
5.014093e+002;4.845995e+001
5.033378e+002;4.834645e+001
5.052663e+002;4.822990e+001
5.071948e+002;4.800080e+001
5.091233e+002;4.766015e+001
5.110518e+002;4.724691e+001
5.129803e+002;4.687521e+001
5.149088e+002;4.690158e+001
5.168373e+002;4.734002e+001
5.187657e+002;4.774826e+001
5.206943e+002;4.790849e+001
5.226227e+002;4.797522e+001
5.245513e+002;4.800122e+001
5.264797e+002;4.799117e+001
5.284083e+002;4.795598e+001
5.303367e+002;4.790431e+001
5.322653e+002;4.782243e+001
5.341937e+002;4.775534e+001
5.361223e+002;4.768319e+001
5.380507e+002;4.757454e+001
5.399792e+002;4.745927e+001
5.419077e+002;4.730974e+001
5.438362e+002;4.711751e+001
5.457647e+002;4.695649e+001
5.476932e+002;4.678700e+001
5.496217e+002;4.661734e+001
5.515502e+002;4.645542e+001
5.534787e+002;4.630125e+001
5.554072e+002;4.612104e+001
5.573357e+002;4.590799e+001
5.592642e+002;4.570481e+001
5.611927e+002;4.548878e+001
5.631212e+002;4.527354e+001
5.650497e+002;4.507402e+001
5.669782e+002;4.495598e+001
5.689067e+002;4.508862e+001
5.708352e+002;4.537887e+001
5.727637e+002;4.557111e+001
5.746922e+002;4.561749e+001
5.766207e+002;4.555966e+001
5.785492e+002;4.542774e+001
5.804777e+002;4.522875e+001
5.824062e+002;4.493169e+001
5.843347e+002;4.454266e+001
5.862632e+002;4.406037e+001
5.881917e+002;4.347153e+001
5.901202e+002;4.276993e+001
5.920486e+002;4.187901e+001
5.939772e+002;4.085207e+001
5.959056e+002;3.967846e+001
5.978342e+002;3.828971e+001
5.997626e+002;3.653766e+001
6.016912e+002;3.461642e+001
6.036196e+002;3.308443e+001
6.055482e+002;3.194683e+001
6.074766e+002;3.088466e+001
6.094052e+002;3.004408e+001
6.113336e+002;2.996870e+001
6.132621e+002;3.046259e+001
6.151906e+002;3.076316e+001
6.171191e+002;3.082338e+001
6.190476e+002;3.088227e+001
6.209761e+002;3.113599e+001
6.229046e+002;3.229898e+001
6.248331e+002;3.488749e+001
6.267616e+002;3.829953e+001
6.286901e+002;4.167770e+001
6.306186e+002;4.401091e+001
6.325471e+002;4.506701e+001
6.344756e+002;4.539016e+001
6.364041e+002;4.550975e+001
6.383326e+002;4.558020e+001
6.402611e+002;4.563952e+001
6.421896e+002;4.571769e+001
6.441181e+002;4.582838e+001
6.460466e+002;4.593510e+001
6.479750e+002;4.601003e+001
6.499036e+002;4.608908e+001
6.518320e+002;4.616543e+001
6.537606e+002;4.623278e+001
6.556890e+002;4.629148e+001
6.576176e+002;4.636139e+001
6.595460e+002;4.647092e+001
6.614745e+002;4.661057e+001
6.634030e+002;4.675244e+001
6.653315e+002;4.688466e+001
6.672600e+002;4.700325e+001
6.691885e+002;4.712330e+001
6.711170e+002;4.724507e+001
6.730455e+002;4.736269e+001
6.749740e+002;4.748772e+001
6.769025e+002;4.762149e+001
6.788310e+002;4.773728e+001
6.807595e+002;4.782768e+001
6.826880e+002;4.790839e+001
6.846165e+002;4.798267e+001
6.865450e+002;4.806808e+001
6.884735e+002;4.819115e+001
6.904020e+002;4.833673e+001
6.923305e+002;4.849238e+001
6.942590e+002;4.865409e+001
6.961875e+002;4.885232e+001
6.981160e+002;4.905910e+001
7.000445e+002;4.921319e+001
7.019730e+002;4.929103e+001
7.039015e+002;4.929397e+001
7.058300e+002;4.923241e+001
7.077585e+002;4.909058e+001
7.096870e+002;4.884747e+001
7.116155e+002;4.848807e+001
7.135439e+002;4.799134e+001
7.154725e+002;4.746165e+001
7.174009e+002;4.703413e+001
7.193295e+002;4.670467e+001
7.212579e+002;4.641259e+001
7.231865e+002;4.612644e+001
7.251149e+002;4.584850e+001
7.270435e+002;4.559324e+001
7.289719e+002;4.535684e+001
7.309005e+002;4.511956e+001
7.328289e+002;4.488102e+001
7.347574e+002;4.465060e+001
7.366859e+002;4.445338e+001
7.386144e+002;4.436032e+001
7.405429e+002;4.449645e+001
7.424714e+002;4.483736e+001
7.443999e+002;4.519001e+001
7.463284e+002;4.544664e+001
7.482569e+002;4.564487e+001
7.501854e+002;4.581034e+001
7.521139e+002;4.593837e+001
7.540424e+002;4.605863e+001
7.559709e+002;4.616771e+001
7.578994e+002;4.625794e+001
7.598279e+002;4.631829e+001
7.617564e+002;4.636071e+001
7.636849e+002;4.640664e+001
7.656134e+002;4.644312e+001
7.675419e+002;4.647050e+001
7.694704e+002;4.648852e+001
7.713989e+002;4.648182e+001
7.733274e+002;4.645449e+001
7.752559e+002;4.641302e+001
7.771844e+002;4.637197e+001
7.791129e+002;4.633665e+001
7.810414e+002;4.630354e+001
7.829698e+002;4.627702e+001
7.848984e+002;4.625394e+001
7.868268e+002;4.622073e+001
7.887554e+002;4.618618e+001
7.906838e+002;4.618003e+001
7.926124e+002;4.621941e+001
7.945408e+002;4.632169e+001
7.964694e+002;4.651543e+001
7.983978e+002;4.679661e+001
8.003264e+002;4.692890e+001
8.022548e+002;4.680183e+001
8.041833e+002;4.659367e+001
8.061118e+002;4.639178e+001
8.080403e+002;4.622769e+001
8.099688e+002;4.610350e+001
8.118973e+002;4.600056e+001
8.138258e+002;4.588647e+001
8.157543e+002;4.579731e+001
8.176828e+002;4.579173e+001
8.196113e+002;4.586931e+001
8.215398e+002;4.600722e+001
8.234683e+002;4.618596e+001
8.253968e+002;4.639400e+001
8.273253e+002;4.663949e+001
8.292538e+002;4.693069e+001
8.311823e+002;4.722953e+001
8.331108e+002;4.747509e+001
8.350393e+002;4.764526e+001
8.369678e+002;4.774009e+001
8.388963e+002;4.776931e+001
8.408248e+002;4.774431e+001
8.427533e+002;4.768485e+001
8.446818e+002;4.761637e+001
8.466103e+002;4.757487e+001
8.485388e+002;4.754429e+001
8.504673e+002;4.748888e+001
8.523958e+002;4.741197e+001
8.543243e+002;4.731883e+001
8.562527e+002;4.720874e+001
8.581813e+002;4.707949e+001
8.601097e+002;4.692101e+001
8.620383e+002;4.673653e+001
8.639667e+002;4.656863e+001
8.658953e+002;4.645143e+001
8.678237e+002;4.636838e+001
8.697523e+002;4.628696e+001
8.716807e+002;4.620081e+001
8.736093e+002;4.612928e+001
8.755377e+002;4.606185e+001
8.774662e+002;4.598618e+001
8.793947e+002;4.591489e+001
8.813232e+002;4.584875e+001
8.832517e+002;4.580634e+001
8.851802e+002;4.578391e+001
8.871087e+002;4.576874e+001
8.890372e+002;4.576308e+001
8.909657e+002;4.576051e+001
8.928942e+002;4.575887e+001
8.948227e+002;4.576878e+001
8.967512e+002;4.580328e+001
8.986797e+002;4.585279e+001
9.006082e+002;4.590882e+001
9.025367e+002;4.596190e+001
9.044651e+002;4.602171e+001
9.063937e+002;4.609968e+001
9.083221e+002;4.619300e+001
9.102507e+002;4.632030e+001
9.121791e+002;4.649014e+001
9.141077e+002;4.666277e+001
9.160361e+002;4.680619e+001
9.179647e+002;4.692484e+001
9.198931e+002;4.701999e+001
9.218217e+002;4.711293e+001
9.237501e+002;4.720654e+001
9.256786e+002;4.728627e+001
9.276071e+002;4.735362e+001
9.295356e+002;4.741133e+001
9.314641e+002;4.745882e+001
9.333926e+002;4.749891e+001
9.353211e+002;4.754270e+001
9.372496e+002;4.757824e+001
9.391781e+002;4.760537e+001
9.411066e+002;4.761632e+001
9.430351e+002;4.758962e+001
9.449636e+002;4.753962e+001
9.468921e+002;4.748386e+001
9.488206e+002;4.742956e+001
9.507491e+002;4.737488e+001
9.526776e+002;4.732165e+001
9.546061e+002;4.726348e+001
9.565346e+002;4.720350e+001
9.584631e+002;4.714906e+001
9.603916e+002;4.711150e+001
9.623201e+002;4.709435e+001
9.642486e+002;4.708090e+001
9.661771e+002;4.706536e+001
9.681056e+002;4.705419e+001
9.700341e+002;4.704861e+001
9.719626e+002;4.705421e+001
9.738911e+002;4.707204e+001
9.758196e+002;4.709975e+001
9.777480e+002;4.713642e+001
9.796766e+002;4.716927e+001
9.816050e+002;4.718884e+001
9.835336e+002;4.721648e+001
9.854620e+002;4.724768e+001
9.873906e+002;4.728082e+001
9.893190e+002;4.730937e+001
9.912476e+002;4.732057e+001
9.931760e+002;4.730604e+001
9.951046e+002;4.726847e+001
9.970330e+002;4.720917e+001
9.989615e+002;4.713680e+001
1.000890e+003;4.705307e+001
1.002819e+003;4.694692e+001
1.004747e+003;4.681012e+001
1.006676e+003;4.664374e+001
1.008604e+003;4.644491e+001
1.010533e+003;4.622313e+001
1.012461e+003;4.598556e+001
1.014390e+003;4.573539e+001
1.016318e+003;4.546581e+001
1.018247e+003;4.516665e+001
1.020175e+003;4.483845e+001
1.022104e+003;4.449464e+001
1.024032e+003;4.414239e+001
1.025960e+003;4.378717e+001
1.027889e+003;4.342697e+001
1.029818e+003;4.306045e+001
1.031746e+003;4.268687e+001
1.033674e+003;4.231674e+001
1.035603e+003;4.195177e+001
1.037531e+003;4.160146e+001
1.039460e+003;4.126210e+001
1.041388e+003;4.092586e+001
1.043317e+003;4.059588e+001
1.045245e+003;4.027540e+001
1.047174e+003;3.996848e+001
1.049102e+003;3.968618e+001
1.051031e+003;3.942620e+001
1.052959e+003;3.918582e+001
1.054888e+003;3.896020e+001
1.056816e+003;3.874766e+001
1.058745e+003;3.855107e+001
1.060673e+003;3.837774e+001
1.062602e+003;3.822755e+001
1.064530e+003;3.810361e+001
1.066459e+003;3.799964e+001
1.068387e+003;3.790690e+001
1.070316e+003;3.782354e+001
1.072244e+003;3.775819e+001
1.074173e+003;3.770485e+001
1.076101e+003;3.767272e+001
1.078030e+003;3.765668e+001
1.079958e+003;3.764312e+001
1.081887e+003;3.763876e+001
1.083815e+003;3.763755e+001
1.085744e+003;3.763211e+001
1.087672e+003;3.763910e+001
1.089601e+003;3.765888e+001
1.091529e+003;3.769223e+001
1.093458e+003;3.774570e+001
1.095386e+003;3.783252e+001
1.097315e+003;3.796345e+001
1.099243e+003;3.816533e+001
1.101172e+003;3.845071e+001
1.103100e+003;3.883229e+001
1.105029e+003;3.931138e+001
1.106957e+003;3.987475e+001
1.108886e+003;4.050491e+001
1.110814e+003;4.119237e+001
1.112743e+003;4.191447e+001
1.114671e+003;4.266452e+001
1.116600e+003;4.342695e+001
1.118528e+003;4.417947e+001
1.120457e+003;4.490132e+001
1.122385e+003;4.558612e+001
1.124314e+003;4.622409e+001
1.126242e+003;4.681529e+001
1.128171e+003;4.734352e+001
1.130099e+003;4.779322e+001
1.132028e+003;4.815329e+001
1.133956e+003;4.842482e+001
1.135885e+003;4.861985e+001
1.137813e+003;4.877129e+001
1.139742e+003;4.889197e+001
1.141670e+003;4.899662e+001
1.143599e+003;4.908556e+001
1.145527e+003;4.915343e+001
1.147456e+003;4.920349e+001
1.149384e+003;4.924699e+001
1.151313e+003;4.928264e+001
1.153241e+003;4.931765e+001
1.155170e+003;4.935497e+001
1.157098e+003;4.938709e+001
1.159027e+003;4.941399e+001
1.160955e+003;4.943724e+001
1.162884e+003;4.945315e+001
1.164812e+003;4.947957e+001
1.166741e+003;4.951122e+001
1.168669e+003;4.954490e+001
1.170598e+003;4.957772e+001
1.172526e+003;4.960720e+001
1.174455e+003;4.962894e+001
1.176383e+003;4.965947e+001
1.178312e+003;4.968777e+001
1.180240e+003;4.973040e+001
1.182169e+003;4.978522e+001
1.184097e+003;4.982018e+001
1.186026e+003;4.985626e+001
1.187954e+003;4.989384e+001
1.189883e+003;4.993269e+001
1.191811e+003;4.998063e+001
1.193740e+003;5.003665e+001
1.195668e+003;5.008697e+001
1.197597e+003;5.013119e+001
1.199525e+003;5.017148e+001
1.201454e+003;5.020823e+001
1.203382e+003;5.025085e+001
1.205311e+003;5.029521e+001
1.207239e+003;5.033582e+001
1.209168e+003;5.037274e+001
1.211096e+003;5.040188e+001
1.213025e+003;5.042004e+001
1.214953e+003;5.043966e+001
1.216882e+003;5.045863e+001
1.218810e+003;5.047646e+001
1.220739e+003;5.048887e+001
1.222667e+003;5.049342e+001
1.224596e+003;5.049056e+001
1.226524e+003;5.049155e+001
1.228453e+003;5.049562e+001
1.230381e+003;5.050637e+001
1.232310e+003;5.052001e+001
1.234238e+003;5.052757e+001
1.236167e+003;5.052493e+001
1.238095e+003;5.051787e+001
1.240024e+003;5.050473e+001
1.241952e+003;5.049621e+001
1.243881e+003;5.048896e+001
1.245809e+003;5.047638e+001
1.247738e+003;5.045760e+001
1.249666e+003;5.043379e+001
1.251595e+003;5.040170e+001
1.253523e+003;5.037631e+001
1.255452e+003;5.035343e+001
1.257380e+003;5.033225e+001
1.259309e+003;5.031346e+001
1.261237e+003;5.029327e+001
1.263166e+003;5.026746e+001
1.265094e+003;5.024901e+001
1.267023e+003;5.023466e+001
1.268951e+003;5.022451e+001
1.270880e+003;5.021339e+001
1.272808e+003;5.019365e+001
1.274737e+003;5.016183e+001
1.276665e+003;5.012873e+001
1.278594e+003;5.009301e+001
1.280522e+003;5.006172e+001
1.282451e+003;5.003075e+001
1.284379e+003;4.999884e+001
1.286308e+003;4.996200e+001
1.288236e+003;4.992432e+001
1.290165e+003;4.988549e+001
1.292093e+003;4.985548e+001
1.294022e+003;4.983190e+001
1.295950e+003;4.981291e+001
1.297879e+003;4.979456e+001
1.299807e+003;4.977661e+001
1.301736e+003;4.975610e+001
1.303664e+003;4.974332e+001
1.305593e+003;4.973718e+001
1.307521e+003;4.973841e+001
1.309450e+003;4.974024e+001
1.311378e+003;4.974178e+001
1.313307e+003;4.973977e+001
1.315235e+003;4.974145e+001
1.317164e+003;4.974772e+001
1.319092e+003;4.976238e+001
1.321021e+003;4.977683e+001
1.322949e+003;4.978979e+001
1.324878e+003;4.979667e+001
1.326806e+003;4.980254e+001
1.328734e+003;4.980737e+001
1.330663e+003;4.981699e+001
1.332592e+003;4.982521e+001
1.334520e+003;4.983163e+001
1.336448e+003;4.982942e+001
1.338377e+003;4.982377e+001
1.340306e+003;4.981168e+001
1.342234e+003;4.980003e+001
1.344162e+003;4.978946e+001
1.346091e+003;4.977797e+001
1.348020e+003;4.975776e+001
1.349948e+003;4.973438e+001
1.351876e+003;4.970214e+001
1.353805e+003;4.967058e+001
1.355734e+003;4.964253e+001
1.357662e+003;4.961661e+001
1.359590e+003;4.958775e+001
1.361519e+003;4.956180e+001
1.363448e+003;4.953088e+001
1.365376e+003;4.950029e+001
1.367304e+003;4.947287e+001
1.369233e+003;4.944939e+001
1.371161e+003;4.942930e+001
1.373090e+003;4.941282e+001
1.375018e+003;4.938665e+001
1.376947e+003;4.936321e+001
1.378875e+003;4.934152e+001
1.380804e+003;4.932338e+001
1.382732e+003;4.931049e+001
1.384661e+003;4.930243e+001
1.386589e+003;4.928681e+001
1.388518e+003;4.927235e+001
1.390446e+003;4.925260e+001
1.392375e+003;4.923054e+001
1.394303e+003;4.921287e+001
1.396232e+003;4.920816e+001
1.398160e+003;4.919573e+001
1.400089e+003;4.918153e+001
1.402017e+003;4.915787e+001
1.403946e+003;4.913437e+001
1.405874e+003;4.911437e+001
1.407803e+003;4.909644e+001
1.409731e+003;4.907561e+001
1.411660e+003;4.905350e+001
1.413588e+003;4.901682e+001
1.415517e+003;4.898081e+001
1.417445e+003;4.893334e+001
1.419374e+003;4.888326e+001
1.421302e+003;4.885888e+001
1.423231e+003;4.882773e+001
1.425159e+003;4.877415e+001
1.427088e+003;4.872156e+001
1.429016e+003;4.866245e+001
1.430945e+003;4.860575e+001
1.432873e+003;4.855681e+001
1.434802e+003;4.850530e+001
1.436730e+003;4.844847e+001
1.438659e+003;4.840070e+001
1.440587e+003;4.834856e+001
1.442516e+003;4.830405e+001
1.444444e+003;4.827219e+001
1.446373e+003;4.824935e+001
1.448301e+003;4.823369e+001
1.450230e+003;4.822864e+001
1.452158e+003;4.822318e+001
1.454087e+003;4.823523e+001
1.456015e+003;4.825774e+001
1.457944e+003;4.828500e+001
1.459872e+003;4.832774e+001
1.461801e+003;4.837485e+001
1.463729e+003;4.840815e+001
1.465658e+003;4.844653e+001
1.467586e+003;4.848101e+001
1.469515e+003;4.851399e+001
1.471443e+003;4.854699e+001
1.473372e+003;4.858839e+001
1.475300e+003;4.862131e+001
1.477229e+003;4.865298e+001
1.479157e+003;4.867369e+001
1.481086e+003;4.869440e+001
1.483014e+003;4.871872e+001
1.484943e+003;4.873857e+001
1.486871e+003;4.875120e+001
1.488800e+003;4.876444e+001
1.490728e+003;4.876222e+001
1.492657e+003;4.877000e+001
1.494585e+003;4.876812e+001
1.496514e+003;4.876014e+001
1.498442e+003;4.876960e+001
1.500371e+003;4.877904e+001
1.502299e+003;4.876765e+001
1.504228e+003;4.875609e+001
1.506156e+003;4.872963e+001
1.508085e+003;4.871764e+001
1.510013e+003;4.872497e+001
1.511942e+003;4.871651e+001
1.513870e+003;4.869723e+001
1.515799e+003;4.868317e+001
1.517727e+003;4.866057e+001
1.519656e+003;4.862717e+001
1.521584e+003;4.861074e+001
1.523513e+003;4.861210e+001
1.525441e+003;4.859598e+001
1.527370e+003;4.857746e+001
1.529298e+003;4.854898e+001
1.531227e+003;4.852808e+001
1.533155e+003;4.851330e+001
1.535084e+003;4.849259e+001
1.537012e+003;4.847438e+001
1.538941e+003;4.844527e+001
1.540869e+003;4.840487e+001
1.542798e+003;4.839458e+001
1.544726e+003;4.837679e+001
1.546655e+003;4.835678e+001
1.548583e+003;4.834209e+001
1.550512e+003;4.832123e+001
1.552440e+003;4.828095e+001
1.554369e+003;4.825380e+001
1.556297e+003;4.823268e+001
1.558226e+003;4.820318e+001
1.560154e+003;4.818286e+001
1.562083e+003;4.817396e+001
1.564011e+003;4.814771e+001
1.565940e+003;4.812750e+001
1.567868e+003;4.809647e+001
1.569797e+003;4.807206e+001
1.571725e+003;4.805658e+001
1.573654e+003;4.802556e+001
1.575582e+003;4.798070e+001
1.577511e+003;4.797025e+001
1.579439e+003;4.795356e+001
1.581368e+003;4.793432e+001
1.583296e+003;4.791427e+001
1.585225e+003;4.788892e+001
1.587153e+003;4.787029e+001
1.589082e+003;4.784716e+001
1.591010e+003;4.781227e+001
1.592939e+003;4.779175e+001
1.594867e+003;4.776643e+001
1.596796e+003;4.774274e+001
1.598724e+003;4.772669e+001
1.600653e+003;4.769990e+001
1.602581e+003;4.766906e+001
1.604510e+003;4.765055e+001
1.606438e+003;4.762062e+001
1.608367e+003;4.759830e+001
1.610295e+003;4.758221e+001
1.612224e+003;4.755666e+001
1.614152e+003;4.752689e+001
1.616081e+003;4.749339e+001
1.618009e+003;4.746368e+001
1.619938e+003;4.745408e+001
1.621866e+003;4.743467e+001
1.623795e+003;4.740931e+001
1.625723e+003;4.738924e+001
1.627652e+003;4.736448e+001
1.629580e+003;4.733314e+001
1.631509e+003;4.731665e+001
1.633437e+003;4.729045e+001
1.635366e+003;4.726382e+001
1.637294e+003;4.724809e+001
1.639223e+003;4.722318e+001
1.641151e+003;4.719042e+001
1.643080e+003;4.717187e+001
1.645008e+003;4.714257e+001
1.646937e+003;4.711605e+001
1.648865e+003;4.709595e+001
1.650794e+003;4.705306e+001
1.652722e+003;4.700133e+001
1.654651e+003;4.700245e+001
1.656579e+003;4.698799e+001
1.658508e+003;4.696966e+001
1.660436e+003;4.694852e+001
1.662365e+003;4.691916e+001
1.664293e+003;4.689573e+001
1.666222e+003;4.686832e+001
1.668150e+003;4.682437e+001
1.670078e+003;4.680564e+001
1.672007e+003;4.678754e+001
1.673936e+003;4.675495e+001
1.675864e+003;4.673466e+001
1.677792e+003;4.671420e+001
1.679721e+003;4.668079e+001
1.681650e+003;4.665796e+001
1.683578e+003;4.662536e+001
1.685506e+003;4.660821e+001
1.687435e+003;4.658816e+001
1.689364e+003;4.655436e+001
1.691292e+003;4.652209e+001
1.693220e+003;4.649838e+001
1.695149e+003;4.646129e+001
1.697078e+003;4.643267e+001
1.699006e+003;4.638937e+001
1.700934e+003;4.635604e+001
1.702863e+003;4.633754e+001
1.704792e+003;4.630540e+001
1.706720e+003;4.626484e+001
1.708648e+003;4.623971e+001
1.710577e+003;4.620487e+001
1.712505e+003;4.616724e+001
1.714434e+003;4.613715e+001
1.716362e+003;4.609981e+001
1.718291e+003;4.605898e+001
1.720219e+003;4.604124e+001
1.722148e+003;4.601312e+001
1.724076e+003;4.598978e+001
1.726005e+003;4.597109e+001
1.727933e+003;4.594109e+001
1.729862e+003;4.591551e+001
1.731790e+003;4.589733e+001
1.733719e+003;4.586640e+001
1.735647e+003;4.585834e+001
1.737576e+003;4.584473e+001
1.739504e+003;4.581623e+001
1.741433e+003;4.579335e+001
1.743361e+003;4.576990e+001
1.745290e+003;4.573885e+001
1.747218e+003;4.572155e+001
1.749147e+003;4.569107e+001
1.751075e+003;4.565883e+001
1.753004e+003;4.563861e+001
1.754932e+003;4.560840e+001
1.756861e+003;4.557474e+001
1.758789e+003;4.555854e+001
1.760718e+003;4.552642e+001
1.762646e+003;4.549913e+001
1.764575e+003;4.547290e+001
1.766503e+003;4.543248e+001
1.768432e+003;4.539908e+001
1.770360e+003;4.537917e+001
1.772289e+003;4.534559e+001
1.774217e+003;4.532532e+001
1.776146e+003;4.529785e+001
1.778074e+003;4.526139e+001
1.780003e+003;4.523153e+001
1.781931e+003;4.520343e+001
1.783860e+003;4.516688e+001
1.785788e+003;4.514857e+001
1.787717e+003;4.511720e+001
1.789645e+003;4.507934e+001
1.791574e+003;4.504756e+001
1.793502e+003;4.501659e+001
1.795431e+003;4.498831e+001
1.797359e+003;4.497022e+001
1.799288e+003;4.493371e+001
1.801216e+003;4.490319e+001
1.803145e+003;4.487691e+001
1.805073e+003;4.483969e+001
1.807002e+003;4.480819e+001
1.808930e+003;4.478611e+001
1.810859e+003;4.474946e+001
1.812787e+003;4.472412e+001
1.814716e+003;4.469201e+001
1.816644e+003;4.465205e+001
1.818573e+003;4.462531e+001
1.820501e+003;4.459831e+001
1.822430e+003;4.455927e+001
1.824358e+003;4.453582e+001
1.826287e+003;4.450045e+001
1.828215e+003;4.446245e+001
1.830144e+003;4.443531e+001
1.832072e+003;4.440257e+001
1.834001e+003;4.436766e+001
1.835929e+003;4.434690e+001
1.837858e+003;4.430682e+001
1.839786e+003;4.427336e+001
1.841715e+003;4.424329e+001
1.843643e+003;4.420355e+001
1.845572e+003;4.417245e+001
1.847500e+003;4.414924e+001
1.849429e+003;4.410878e+001
1.851357e+003;4.408107e+001
1.853286e+003;4.404765e+001
1.855214e+003;4.400574e+001
1.857143e+003;4.397665e+001
1.859071e+003;4.394797e+001
1.861000e+003;4.390776e+001
1.862928e+003;4.388404e+001
1.864857e+003;4.384344e+001
1.866785e+003;4.380151e+001
1.868714e+003;4.377388e+001
1.870642e+003;4.373987e+001
1.872571e+003;4.370255e+001
1.874499e+003;4.367877e+001
1.876428e+003;4.363483e+001
1.878356e+003;4.359938e+001
1.880285e+003;4.356762e+001
1.882213e+003;4.352451e+001
1.884142e+003;4.349086e+001
1.886070e+003;4.346326e+001
1.887999e+003;4.341426e+001
1.889927e+003;4.338058e+001
1.891856e+003;4.334287e+001
1.893784e+003;4.329708e+001
1.895713e+003;4.326508e+001
1.897641e+003;4.322923e+001
1.899570e+003;4.317966e+001
1.901498e+003;4.314766e+001
1.903427e+003;4.309818e+001
1.905355e+003;4.304853e+001
1.907284e+003;4.301130e+001
1.909212e+003;4.296373e+001
1.911141e+003;4.291423e+001
1.913069e+003;4.287745e+001
1.914998e+003;4.281647e+001
1.916926e+003;4.276575e+001
1.918855e+003;4.272103e+001
1.920783e+003;4.266154e+001
1.922712e+003;4.260953e+001
1.924640e+003;4.256229e+001
1.926569e+003;4.249258e+001
1.928497e+003;4.244004e+001
1.930426e+003;4.238055e+001
1.932354e+003;4.231146e+001
1.934283e+003;4.225801e+001
1.936211e+003;4.219771e+001
1.938140e+003;4.212170e+001
1.940068e+003;4.206567e+001
1.941997e+003;4.199314e+001
1.943925e+003;4.192241e+001
1.945854e+003;4.186450e+001
1.947782e+003;4.179165e+001
1.949711e+003;4.171814e+001
1.951639e+003;4.166085e+001
1.953568e+003;4.157809e+001
1.955496e+003;4.150791e+001
1.957425e+003;4.144630e+001
1.959353e+003;4.137046e+001
1.961282e+003;4.130382e+001
1.963210e+003;4.124189e+001
1.965139e+003;4.115759e+001
1.967067e+003;4.109860e+001
1.968996e+003;4.103563e+001
1.970924e+003;4.096161e+001
1.972853e+003;4.090600e+001
1.974781e+003;4.084613e+001
1.976710e+003;4.077315e+001
1.978638e+003;4.072491e+001
1.980567e+003;4.066209e+001
1.982495e+003;4.060480e+001
1.984424e+003;4.056628e+001
1.986352e+003;4.051287e+001
1.988281e+003;4.046084e+001
1.990209e+003;4.043037e+001
1.992138e+003;4.037935e+001
1.994066e+003;4.034749e+001
1.995995e+003;4.032414e+001
1.997923e+003;4.028576e+001
1.999852e+003;4.026305e+001
2.001780e+003;4.024976e+001
2.003708e+003;4.021523e+001
2.005637e+003;4.020822e+001
2.007566e+003;4.019910e+001
2.009494e+003;4.018088e+001
2.011422e+003;4.018015e+001
2.013351e+003;4.017273e+001
2.015280e+003;4.015515e+001
2.017208e+003;4.016634e+001
2.019136e+003;4.015969e+001
2.021065e+003;4.015442e+001
2.022994e+003;4.016526e+001
2.024922e+003;4.015955e+001
2.026850e+003;4.015278e+001
2.028779e+003;4.016426e+001
2.030708e+003;4.015108e+001
2.032636e+003;4.015401e+001
2.034564e+003;4.016367e+001
2.036493e+003;4.015147e+001
2.038422e+003;4.014818e+001
2.040350e+003;4.015205e+001
2.042278e+003;4.013303e+001
2.044207e+003;4.013726e+001
2.046135e+003;4.013355e+001
2.048064e+003;4.011621e+001
2.049992e+003;4.011509e+001
2.051921e+003;4.010588e+001
2.053849e+003;4.007954e+001
2.055778e+003;4.008008e+001
2.057707e+003;4.006581e+001
2.059635e+003;4.004863e+001
2.061563e+003;4.004267e+001
2.063492e+003;4.002021e+001
2.065420e+003;3.999755e+001
2.067349e+003;3.999621e+001
2.069277e+003;3.996862e+001
2.071206e+003;3.995050e+001
2.073135e+003;3.994045e+001
2.075063e+003;3.991298e+001
2.076991e+003;3.989414e+001
2.078920e+003;3.988442e+001
2.080848e+003;3.985118e+001
2.082777e+003;3.984083e+001
2.084705e+003;3.982703e+001
2.086634e+003;3.979620e+001
2.088563e+003;3.978129e+001
2.090491e+003;3.976715e+001
2.092419e+003;3.973622e+001
2.094348e+003;3.972981e+001
2.096276e+003;3.970790e+001
2.098205e+003;3.968101e+001
2.100133e+003;3.967187e+001
2.102062e+003;3.964783e+001
2.103990e+003;3.961784e+001
2.105919e+003;3.961535e+001
2.107847e+003;3.958997e+001
2.109776e+003;3.956820e+001
2.111704e+003;3.955562e+001
2.113633e+003;3.952634e+001
2.115561e+003;3.950560e+001
2.117490e+003;3.949839e+001
2.119418e+003;3.946394e+001
2.121347e+003;3.944997e+001
2.123275e+003;3.943586e+001
2.125204e+003;3.940254e+001
2.127132e+003;3.938390e+001
2.129061e+003;3.936733e+001
2.130989e+003;3.933244e+001
2.132918e+003;3.932446e+001
2.134846e+003;3.930162e+001
2.136775e+003;3.926698e+001
2.138703e+003;3.925014e+001
2.140632e+003;3.922518e+001
2.142560e+003;3.919109e+001
2.144489e+003;3.917984e+001
2.146417e+003;3.914421e+001
2.148346e+003;3.911480e+001
2.150274e+003;3.909892e+001
2.152203e+003;3.906110e+001
2.154131e+003;3.902687e+001
2.156060e+003;3.901158e+001
2.157988e+003;3.896958e+001
2.159917e+003;3.894363e+001
2.161845e+003;3.891849e+001
2.163774e+003;3.887487e+001
2.165702e+003;3.884729e+001
2.167631e+003;3.882269e+001
2.169559e+003;3.877609e+001
2.171488e+003;3.875628e+001
2.173416e+003;3.872308e+001
2.175345e+003;3.867921e+001
2.177273e+003;3.865250e+001
2.179202e+003;3.861620e+001
2.181130e+003;3.857283e+001
2.183059e+003;3.855589e+001
2.184987e+003;3.851257e+001
2.186916e+003;3.847183e+001
2.188844e+003;3.844596e+001
2.190773e+003;3.840379e+001
2.192701e+003;3.836607e+001
2.194630e+003;3.834268e+001
2.196558e+003;3.829201e+001
2.198487e+003;3.826097e+001
2.200415e+003;3.823051e+001
2.202344e+003;3.818105e+001
2.204272e+003;3.814927e+001
2.206201e+003;3.812130e+001
2.208129e+003;3.807062e+001
2.210058e+003;3.804421e+001
2.211986e+003;3.800304e+001
2.213915e+003;3.795612e+001
2.215843e+003;3.792943e+001
2.217772e+003;3.788963e+001
2.219700e+003;3.784175e+001
2.221629e+003;3.782002e+001
2.223557e+003;3.777172e+001
2.225486e+003;3.773052e+001
2.227414e+003;3.770284e+001
2.229343e+003;3.765369e+001
2.231271e+003;3.761475e+001
2.233200e+003;3.759125e+001
2.235128e+003;3.753467e+001
2.237057e+003;3.750187e+001
2.238985e+003;3.746848e+001
2.240914e+003;3.741637e+001
2.242842e+003;3.738682e+001
2.244771e+003;3.735333e+001
2.246699e+003;3.729686e+001
2.248628e+003;3.727488e+001
2.250556e+003;3.723155e+001
2.252485e+003;3.718082e+001
2.254413e+003;3.715741e+001
2.256342e+003;3.711415e+001
2.258270e+003;3.706587e+001
2.260199e+003;3.704572e+001
2.262127e+003;3.699087e+001
2.264056e+003;3.695216e+001
2.265984e+003;3.692892e+001
2.267913e+003;3.687578e+001
2.269841e+003;3.683856e+001
2.271770e+003;3.681499e+001
2.273698e+003;3.675631e+001
2.275627e+003;3.672904e+001
2.277555e+003;3.669501e+001
2.279484e+003;3.664089e+001
2.281412e+003;3.661784e+001
2.283341e+003;3.658415e+001
2.285269e+003;3.652559e+001
2.287198e+003;3.650510e+001
2.289126e+003;3.646085e+001
2.291055e+003;3.641467e+001
2.292983e+003;3.639468e+001
2.294912e+003;3.634745e+001
2.296840e+003;3.629976e+001
2.298769e+003;3.628301e+001
2.300697e+003;3.622664e+001
2.302625e+003;3.618837e+001
2.304554e+003;3.616669e+001
2.306483e+003;3.611327e+001
2.308411e+003;3.607746e+001
2.310340e+003;3.605280e+001
2.312268e+003;3.599203e+001
2.314197e+003;3.596788e+001
2.316125e+003;3.593666e+001
2.318053e+003;3.588162e+001
2.319982e+003;3.585775e+001
2.321911e+003;3.582272e+001
2.323839e+003;3.576495e+001
2.325768e+003;3.574887e+001
2.327696e+003;3.570364e+001
2.329625e+003;3.565408e+001
2.331553e+003;3.563766e+001
2.333481e+003;3.559130e+001
2.335410e+003;3.554093e+001
2.337339e+003;3.552522e+001
2.339267e+003;3.546943e+001
2.341196e+003;3.543382e+001
2.343124e+003;3.541212e+001
2.345052e+003;3.535625e+001
2.346981e+003;3.532215e+001
2.348909e+003;3.529867e+001
2.350838e+003;3.523798e+001
2.352767e+003;3.521485e+001
2.354695e+003;3.518432e+001
2.356624e+003;3.513105e+001
2.358552e+003;3.510994e+001
2.360480e+003;3.507376e+001
2.362409e+003;3.501538e+001
2.364337e+003;3.499900e+001
2.366266e+003;3.495287e+001
2.368195e+003;3.490473e+001
2.370123e+003;3.488517e+001
2.372052e+003;3.483596e+001
2.373980e+003;3.478931e+001
2.375908e+003;3.477343e+001
2.377837e+003;3.471646e+001
2.379765e+003;3.468298e+001
2.381694e+003;3.466124e+001
2.383622e+003;3.460357e+001
2.385551e+003;3.457028e+001
2.387479e+003;3.454770e+001
2.389408e+003;3.448788e+001
2.391336e+003;3.446671e+001
2.393265e+003;3.443352e+001
2.395193e+003;3.437822e+001
2.397122e+003;3.435675e+001
2.399050e+003;3.431930e+001
2.400979e+003;3.426320e+001
2.402907e+003;3.424880e+001
2.404836e+003;3.420164e+001
2.406764e+003;3.415688e+001
2.408693e+003;3.413865e+001
2.410621e+003;3.408722e+001
2.412550e+003;3.404468e+001
2.414478e+003;3.403053e+001
2.416407e+003;3.397299e+001
2.418335e+003;3.394082e+001
2.420264e+003;3.391674e+001
2.422192e+003;3.385987e+001
2.424121e+003;3.383060e+001
2.426049e+003;3.380490e+001
2.427978e+003;3.374525e+001
2.429906e+003;3.372842e+001
2.431835e+003;3.369162e+001
2.433763e+003;3.363543e+001
2.435692e+003;3.361633e+001
2.437620e+003;3.357691e+001
2.439549e+003;3.352457e+001
2.441477e+003;3.351296e+001
2.443406e+003;3.346037e+001
2.445334e+003;3.341662e+001
2.447263e+003;3.340025e+001
2.449191e+003;3.334791e+001
2.451120e+003;3.330937e+001
2.453048e+003;3.329454e+001
2.454977e+003;3.323369e+001
2.456905e+003;3.320584e+001
2.458834e+003;3.318008e+001
2.460762e+003;3.311999e+001
2.462691e+003;3.309719e+001
2.464619e+003;3.307147e+001
2.466548e+003;3.300937e+001
2.468476e+003;3.299450e+001
2.470405e+003;3.295515e+001
2.472333e+003;3.290112e+001
2.474262e+003;3.288723e+001
2.476190e+003;3.284368e+001
2.478119e+003;3.279188e+001
2.480047e+003;3.278446e+001
2.481976e+003;3.272875e+001
2.483904e+003;3.268486e+001
2.485833e+003;3.267143e+001
2.487761e+003;3.261705e+001
2.489690e+003;3.257969e+001
2.491618e+003;3.256620e+001
2.493547e+003;3.250115e+001
2.495475e+003;3.247462e+001
2.497404e+003;3.245245e+001
2.499332e+003;3.239280e+001
2.501261e+003;3.237014e+001
2.503189e+003;3.234331e+001
2.505118e+003;3.228046e+001
2.507046e+003;3.226891e+001
2.508975e+003;3.222946e+001
2.510903e+003;3.217315e+001
2.512832e+003;3.216262e+001
2.514760e+003;3.212217e+001
2.516689e+003;3.206745e+001
2.518617e+003;3.205956e+001
2.520546e+003;3.200719e+001
2.522474e+003;3.196554e+001
2.524403e+003;3.195223e+001
2.526331e+003;3.189651e+001
2.528260e+003;3.185858e+001
2.530188e+003;3.184748e+001
2.532117e+003;3.178424e+001
2.534045e+003;3.175580e+001
2.535974e+003;3.173258e+001
2.537902e+003;3.167359e+001
2.539831e+003;3.165109e+001
2.541759e+003;3.162470e+001
2.543688e+003;3.156066e+001
2.545616e+003;3.154700e+001
2.547545e+003;3.151044e+001
2.549473e+003;3.145647e+001
2.551402e+003;3.144163e+001
2.553330e+003;3.139972e+001
2.555259e+003;3.134853e+001
2.557187e+003;3.133981e+001
2.559116e+003;3.128547e+001
2.561044e+003;3.124499e+001
2.562973e+003;3.123184e+001
2.564901e+003;3.117912e+001
2.566830e+003;3.114182e+001
2.568758e+003;3.112539e+001
2.570687e+003;3.106599e+001
2.572615e+003;3.104321e+001
2.574544e+003;3.101740e+001
2.576472e+003;3.096074e+001
2.578401e+003;3.094029e+001
2.580329e+003;3.091062e+001
2.582258e+003;3.085052e+001
2.584186e+003;3.083719e+001
2.586115e+003;3.079710e+001
2.588043e+003;3.074946e+001
2.589972e+003;3.073487e+001
2.591900e+003;3.068909e+001
2.593829e+003;3.064303e+001
2.595757e+003;3.063365e+001
2.597686e+003;3.057912e+001
2.599614e+003;3.054467e+001
2.601543e+003;3.052729e+001
2.603471e+003;3.047166e+001
2.605400e+003;3.044093e+001
2.607328e+003;3.042184e+001
2.609257e+003;3.035908e+001
2.611185e+003;3.034174e+001
2.613114e+003;3.031385e+001
2.615042e+003;3.025593e+001
2.616971e+003;3.023880e+001
2.618899e+003;3.020576e+001
2.620828e+003;3.014928e+001
2.622756e+003;3.014209e+001
2.624685e+003;3.009587e+001
2.626613e+003;3.004774e+001
2.628542e+003;3.003994e+001
2.630470e+003;2.999142e+001
2.632398e+003;2.994548e+001
2.634327e+003;2.993933e+001
2.636256e+003;2.988023e+001
2.638184e+003;2.984833e+001
2.640113e+003;2.983521e+001
2.642041e+003;2.977332e+001
2.643969e+003;2.974529e+001
2.645898e+003;2.973263e+001
2.647826e+003;2.966758e+001
2.649755e+003;2.965035e+001
2.651684e+003;2.962388e+001
2.653612e+003;2.956435e+001
2.655541e+003;2.955164e+001
2.657469e+003;2.951977e+001
2.659397e+003;2.945816e+001
2.661326e+003;2.945464e+001
2.663254e+003;2.941216e+001
2.665183e+003;2.935966e+001
2.667112e+003;2.935150e+001
2.669040e+003;2.930664e+001
2.670969e+003;2.926086e+001
2.672897e+003;2.925581e+001
2.674825e+003;2.919799e+001
2.676754e+003;2.916315e+001
2.678682e+003;2.915146e+001
2.680611e+003;2.909449e+001
2.682540e+003;2.906355e+001
2.684468e+003;2.905014e+001
2.686396e+003;2.899007e+001
2.688325e+003;2.897213e+001
2.690253e+003;2.894547e+001
2.692182e+003;2.888830e+001
2.694110e+003;2.887276e+001
2.696039e+003;2.884463e+001
2.697968e+003;2.878845e+001
2.699896e+003;2.877837e+001
2.701824e+003;2.873648e+001
2.703753e+003;2.869162e+001
2.705681e+003;2.867850e+001
2.707610e+003;2.863384e+001
2.709538e+003;2.859305e+001
2.711467e+003;2.858384e+001
2.713396e+003;2.852996e+001
2.715324e+003;2.849948e+001
2.717252e+003;2.847995e+001
2.719181e+003;2.842803e+001
2.721109e+003;2.840475e+001
2.723038e+003;2.838375e+001
2.724966e+003;2.832537e+001
2.726895e+003;2.831070e+001
2.728823e+003;2.827841e+001
2.730752e+003;2.822783e+001
2.732680e+003;2.821351e+001
2.734609e+003;2.817766e+001
2.736537e+003;2.812965e+001
2.738466e+003;2.812295e+001
2.740394e+003;2.807203e+001
2.742323e+003;2.803274e+001
2.744251e+003;2.802406e+001
2.746180e+003;2.797491e+001
2.748108e+003;2.793927e+001
2.750037e+003;2.792789e+001
2.751965e+003;2.786866e+001
2.753894e+003;2.784873e+001
2.755822e+003;2.782987e+001
2.757751e+003;2.777064e+001
2.759679e+003;2.775355e+001
2.761608e+003;2.773360e+001
2.763536e+003;2.767098e+001
2.765465e+003;2.766219e+001
2.767393e+003;2.762974e+001
2.769322e+003;2.757775e+001
2.771250e+003;2.757232e+001
2.773179e+003;2.753411e+001
2.775107e+003;2.747960e+001
2.777036e+003;2.747958e+001
2.778964e+003;2.743244e+001
2.780893e+003;2.739004e+001
2.782821e+003;2.738353e+001
2.784750e+003;2.733359e+001
2.786678e+003;2.729705e+001
2.788607e+003;2.729243e+001
2.790535e+003;2.723195e+001
2.792464e+003;2.720680e+001
2.794392e+003;2.719487e+001
2.796321e+003;2.713858e+001
2.798249e+003;2.711401e+001
2.800178e+003;2.709669e+001
2.802106e+003;2.704019e+001
2.804035e+003;2.703017e+001
2.805963e+003;2.700022e+001
2.807892e+003;2.694798e+001
2.809820e+003;2.693699e+001
2.811749e+003;2.690437e+001
2.813677e+003;2.685337e+001
2.815606e+003;2.684649e+001
2.817534e+003;2.680415e+001
2.819463e+003;2.676739e+001
2.821391e+003;2.675544e+001
2.823320e+003;2.670838e+001
2.825248e+003;2.667374e+001
2.827177e+003;2.666537e+001
2.829105e+003;2.661368e+001
2.831034e+003;2.658800e+001
2.832962e+003;2.656616e+001
2.834891e+003;2.651916e+001
2.836819e+003;2.650084e+001
2.838748e+003;2.647574e+001
2.840676e+003;2.642226e+001
2.842605e+003;2.641348e+001
2.844533e+003;2.638055e+001
2.846462e+003;2.633621e+001
2.848390e+003;2.632098e+001
2.850319e+003;2.628191e+001
2.852247e+003;2.624426e+001
2.854176e+003;2.623764e+001
2.856104e+003;2.618515e+001
2.858033e+003;2.615560e+001
2.859961e+003;2.614517e+001
2.861890e+003;2.609478e+001
2.863818e+003;2.606831e+001
2.865747e+003;2.605543e+001
2.867675e+003;2.599985e+001
2.869604e+003;2.598847e+001
2.871532e+003;2.596569e+001
2.873461e+003;2.591062e+001
2.875389e+003;2.589965e+001
2.877318e+003;2.587620e+001
2.879246e+003;2.582035e+001
2.881175e+003;2.581508e+001
2.883103e+003;2.577721e+001
2.885032e+003;2.573360e+001
2.886960e+003;2.573095e+001
2.888889e+003;2.568826e+001
2.890817e+003;2.564395e+001
2.892746e+003;2.564733e+001
2.894674e+003;2.559791e+001
2.896603e+003;2.556227e+001
2.898531e+003;2.555392e+001
2.900460e+003;2.550431e+001
2.902388e+003;2.547764e+001
2.904317e+003;2.547001e+001
2.906245e+003;2.540985e+001
2.908174e+003;2.539374e+001
2.910102e+003;2.537911e+001
2.912031e+003;2.532650e+001
2.913959e+003;2.530897e+001
2.915888e+003;2.528773e+001
2.917816e+003;2.523468e+001
2.919745e+003;2.522688e+001
2.921673e+003;2.519262e+001
2.923602e+003;2.514692e+001
2.925530e+003;2.514091e+001
2.927458e+003;2.510909e+001
2.929387e+003;2.506528e+001
2.931316e+003;2.505640e+001
2.933244e+003;2.501286e+001
2.935173e+003;2.498613e+001
2.937101e+003;2.497305e+001
2.939030e+003;2.492666e+001
2.940958e+003;2.490057e+001
2.942886e+003;2.488929e+001
2.944815e+003;2.484017e+001
2.946744e+003;2.482185e+001
2.948672e+003;2.479587e+001
2.950601e+003;2.475516e+001
2.952529e+003;2.474254e+001
2.954458e+003;2.470987e+001
2.956386e+003;2.466188e+001
2.958314e+003;2.465749e+001
2.960243e+003;2.462050e+001
2.962172e+003;2.458467e+001
2.964100e+003;2.457412e+001
2.966029e+003;2.453271e+001
2.967957e+003;2.450410e+001
2.969885e+003;2.449843e+001
2.971814e+003;2.444351e+001
2.973742e+003;2.442310e+001
2.975671e+003;2.441244e+001
2.977600e+003;2.436313e+001
2.979528e+003;2.434385e+001
2.981457e+003;2.432637e+001
2.983385e+003;2.427321e+001
2.985313e+003;2.427054e+001
2.987242e+003;2.424254e+001
2.989170e+003;2.419004e+001
2.991099e+003;2.418745e+001
2.993028e+003;2.416246e+001
2.994956e+003;2.411206e+001
2.996885e+003;2.411020e+001
2.998813e+003;2.407041e+001
3.000741e+003;2.403507e+001
3.002670e+003;2.403311e+001
3.004598e+003;2.398774e+001
3.006527e+003;2.395109e+001
3.008456e+003;2.395508e+001
3.010384e+003;2.390818e+001
3.012313e+003;2.388138e+001
3.014241e+003;2.387066e+001
3.016169e+003;2.382350e+001
3.018098e+003;2.380348e+001
3.020026e+003;2.379156e+001
3.021955e+003;2.373792e+001
3.023884e+003;2.372806e+001
3.025812e+003;2.371013e+001
3.027740e+003;2.366416e+001
3.029669e+003;2.364868e+001
3.031597e+003;2.362404e+001
3.033526e+003;2.358477e+001
3.035454e+003;2.358080e+001
3.037383e+003;2.354230e+001
3.039312e+003;2.350739e+001
3.041240e+003;2.349988e+001
3.043168e+003;2.346617e+001
3.045097e+003;2.343323e+001
3.047025e+003;2.342087e+001
3.048954e+003;2.337880e+001
3.050882e+003;2.336336e+001
3.052811e+003;2.334306e+001
3.054740e+003;2.329871e+001
3.056668e+003;2.328397e+001
3.058596e+003;2.326706e+001
3.060525e+003;2.322350e+001
3.062453e+003;2.321427e+001
3.064382e+003;2.318230e+001
3.066310e+003;2.314868e+001
3.068239e+003;2.314362e+001
3.070167e+003;2.310712e+001
3.072096e+003;2.306885e+001
3.074024e+003;2.306816e+001
3.075953e+003;2.302791e+001
3.077881e+003;2.300271e+001
3.079810e+003;2.299279e+001
3.081738e+003;2.294870e+001
3.083667e+003;2.292977e+001
3.085595e+003;2.292185e+001
3.087524e+003;2.286691e+001
3.089452e+003;2.285586e+001
3.091381e+003;2.284345e+001
3.093309e+003;2.279650e+001
3.095238e+003;2.278419e+001
3.097166e+003;2.276469e+001
3.099095e+003;2.271787e+001
3.101023e+003;2.271922e+001
3.102952e+003;2.268904e+001
3.104880e+003;2.264456e+001
3.106809e+003;2.264380e+001
3.108737e+003;2.261683e+001
3.110666e+003;2.257421e+001
3.112594e+003;2.257212e+001
3.114523e+003;2.253446e+001
3.116451e+003;2.250904e+001
3.118380e+003;2.250497e+001
3.120308e+003;2.246304e+001
3.122237e+003;2.243305e+001
3.124165e+003;2.243005e+001
3.126094e+003;2.238779e+001
3.128022e+003;2.236864e+001
3.129951e+003;2.235214e+001
3.131879e+003;2.231422e+001
3.133808e+003;2.229996e+001
3.135736e+003;2.228201e+001
3.137665e+003;2.223867e+001
3.139593e+003;2.223141e+001
3.141522e+003;2.220660e+001
3.143450e+003;2.217472e+001
3.145379e+003;2.216103e+001
3.147307e+003;2.213193e+001
3.149236e+003;2.210502e+001
3.151164e+003;2.209903e+001
3.153093e+003;2.205914e+001
3.155021e+003;2.203741e+001
3.156950e+003;2.202556e+001
3.158878e+003;2.199087e+001
3.160807e+003;2.197175e+001
3.162735e+003;2.195420e+001
3.164664e+003;2.191286e+001
3.166592e+003;2.190864e+001
3.168521e+003;2.188530e+001
3.170449e+003;2.184683e+001
3.172378e+003;2.183950e+001
3.174306e+003;2.181510e+001
3.176235e+003;2.177761e+001
3.178163e+003;2.177555e+001
3.180092e+003;2.173870e+001
3.182020e+003;2.171224e+001
3.183949e+003;2.171086e+001
3.185877e+003;2.167195e+001
3.187806e+003;2.164235e+001
3.189734e+003;2.164425e+001
3.191663e+003;2.160204e+001
3.193591e+003;2.158328e+001
3.195520e+003;2.157380e+001
3.197448e+003;2.153165e+001
3.199377e+003;2.151722e+001
3.201305e+003;2.151035e+001
3.203234e+003;2.146284e+001
3.205162e+003;2.145460e+001
3.207091e+003;2.144081e+001
3.209019e+003;2.140305e+001
3.210948e+003;2.139131e+001
3.212876e+003;2.137033e+001
3.214805e+003;2.133293e+001
3.216733e+003;2.133340e+001
3.218662e+003;2.130446e+001
3.220590e+003;2.127052e+001
3.222519e+003;2.126402e+001
3.224447e+003;2.123852e+001
3.226376e+003;2.120895e+001
3.228304e+003;2.120156e+001
3.230233e+003;2.116692e+001
3.232161e+003;2.115231e+001
3.234090e+003;2.114095e+001
3.236018e+003;2.110664e+001
3.237947e+003;2.108590e+001
3.239875e+003;2.107375e+001
3.241804e+003;2.104143e+001
3.243732e+003;2.103008e+001
3.245661e+003;2.100537e+001
3.247589e+003;2.097840e+001
3.249518e+003;2.096905e+001
3.251446e+003;2.094345e+001
3.253375e+003;2.091241e+001
3.255303e+003;2.090666e+001
3.257232e+003;2.087514e+001
3.259160e+003;2.085607e+001
3.261089e+003;2.084321e+001
3.263017e+003;2.080851e+001
3.264946e+003;2.079365e+001
3.266874e+003;2.078742e+001
3.268802e+003;2.074661e+001
3.270731e+003;2.073716e+001
3.272660e+003;2.072245e+001
3.274588e+003;2.068786e+001
3.276517e+003;2.067811e+001
3.278445e+003;2.065937e+001
3.280374e+003;2.062089e+001
3.282302e+003;2.062290e+001
3.284230e+003;2.059785e+001
3.286159e+003;2.056273e+001
3.288088e+003;2.055821e+001
3.290016e+003;2.053589e+001
3.291945e+003;2.050540e+001
3.293873e+003;2.050455e+001
3.295802e+003;2.046939e+001
3.297730e+003;2.044683e+001
3.299658e+003;2.044390e+001
3.301587e+003;2.041224e+001
3.303516e+003;2.038931e+001
3.305444e+003;2.038817e+001
3.307373e+003;2.035315e+001
3.309301e+003;2.033775e+001
3.311229e+003;2.032328e+001
3.313158e+003;2.029124e+001
3.315086e+003;2.027863e+001
3.317015e+003;2.026771e+001
3.318944e+003;2.023163e+001
3.320872e+003;2.022227e+001
3.322801e+003;2.020470e+001
3.324729e+003;2.018105e+001
3.326657e+003;2.016733e+001
3.328586e+003;2.014440e+001
3.330514e+003;2.012063e+001
3.332443e+003;2.011510e+001
3.334372e+003;2.008619e+001
3.336300e+003;2.006707e+001
3.338229e+003;2.005323e+001
3.340157e+003;2.002999e+001
3.342085e+003;2.001457e+001
3.344014e+003;1.999899e+001
3.345942e+003;1.996739e+001
3.347871e+003;1.996301e+001
3.349800e+003;1.994314e+001
3.351728e+003;1.991385e+001
3.353656e+003;1.990375e+001
3.355585e+003;1.988591e+001
3.357513e+003;1.985999e+001
3.359442e+003;1.985446e+001
3.361370e+003;1.982308e+001
3.363299e+003;1.980492e+001
3.365228e+003;1.980096e+001
3.367156e+003;1.977325e+001
3.369084e+003;1.975042e+001
3.371013e+003;1.974685e+001
3.372941e+003;1.971479e+001
3.374870e+003;1.970222e+001
3.376798e+003;1.968924e+001
3.378727e+003;1.965742e+001
3.380656e+003;1.964781e+001
3.382584e+003;1.964160e+001
3.384512e+003;1.960355e+001
3.386441e+003;1.959442e+001
3.388369e+003;1.958053e+001
3.390298e+003;1.955547e+001
3.392226e+003;1.954593e+001
3.394155e+003;1.952678e+001
3.396083e+003;1.949621e+001
3.398012e+003;1.949553e+001
3.399940e+003;1.947394e+001
3.401869e+003;1.944766e+001
3.403797e+003;1.943900e+001
3.405726e+003;1.942215e+001
3.407654e+003;1.939903e+001
3.409583e+003;1.938900e+001
3.411511e+003;1.936170e+001
3.413440e+003;1.935040e+001
3.415368e+003;1.933982e+001
3.417297e+003;1.931402e+001
3.419225e+003;1.929380e+001
3.421154e+003;1.928579e+001
3.423082e+003;1.926586e+001
3.425011e+003;1.925429e+001
3.426939e+003;1.923005e+001
3.428868e+003;1.921182e+001
3.430796e+003;1.920402e+001
3.432725e+003;1.918571e+001
3.434653e+003;1.916098e+001
3.436582e+003;1.915223e+001
3.438510e+003;1.913055e+001
3.440439e+003;1.911925e+001
3.442367e+003;1.910337e+001
3.444296e+003;1.907755e+001
3.446224e+003;1.906662e+001
3.448153e+003;1.905880e+001
3.450081e+003;1.902676e+001
3.452010e+003;1.901641e+001
3.453938e+003;1.900278e+001
3.455867e+003;1.898350e+001
3.457795e+003;1.897303e+001
3.459724e+003;1.895290e+001
3.461652e+003;1.892611e+001
3.463581e+003;1.892825e+001
3.465509e+003;1.890978e+001
3.467438e+003;1.888572e+001
3.469366e+003;1.887626e+001
3.471295e+003;1.886048e+001
3.473223e+003;1.883961e+001
3.475152e+003;1.883283e+001
3.477080e+003;1.880599e+001
3.479009e+003;1.879335e+001
3.480937e+003;1.878658e+001
3.482866e+003;1.876212e+001
3.484794e+003;1.874004e+001
3.486723e+003;1.873585e+001
3.488651e+003;1.871638e+001
3.490580e+003;1.870453e+001
3.492508e+003;1.868673e+001
3.494437e+003;1.866655e+001
3.496365e+003;1.865652e+001
3.498294e+003;1.864697e+001
3.500222e+003;1.862057e+001
3.502151e+003;1.860884e+001
3.504079e+003;1.859588e+001
3.506008e+003;1.858271e+001
3.507936e+003;1.856474e+001
3.509865e+003;1.854811e+001
3.511793e+003;1.853432e+001
3.513722e+003;1.852724e+001
3.515650e+003;1.850510e+001
3.517579e+003;1.848924e+001
3.519507e+003;1.847404e+001
3.521436e+003;1.846253e+001
3.523364e+003;1.844893e+001
3.525293e+003;1.842964e+001
3.527221e+003;1.840731e+001
3.529150e+003;1.840417e+001
3.531078e+003;1.838740e+001
3.533007e+003;1.837057e+001
3.534935e+003;1.835734e+001
3.536864e+003;1.834399e+001
3.538792e+003;1.833031e+001
3.540721e+003;1.832129e+001
3.542649e+003;1.829437e+001
3.544578e+003;1.828448e+001
3.546506e+003;1.827853e+001
3.548435e+003;1.825970e+001
3.550363e+003;1.823922e+001
3.552292e+003;1.823208e+001
3.554220e+003;1.821544e+001
3.556149e+003;1.820630e+001
3.558077e+003;1.818745e+001
3.560006e+003;1.816759e+001
3.561934e+003;1.815991e+001
3.563863e+003;1.815267e+001
3.565791e+003;1.812773e+001
3.567720e+003;1.811609e+001
3.569648e+003;1.810542e+001
3.571577e+003;1.809480e+001
3.573505e+003;1.807807e+001
3.575434e+003;1.806100e+001
3.577362e+003;1.804524e+001
3.579291e+003;1.804136e+001
3.581219e+003;1.802539e+001
3.583148e+003;1.800795e+001
3.585076e+003;1.799165e+001
3.587005e+003;1.798531e+001
3.588933e+003;1.797252e+001
3.590862e+003;1.795704e+001
3.592790e+003;1.793742e+001
3.594719e+003;1.793076e+001
3.596647e+003;1.791891e+001
3.598576e+003;1.790562e+001
3.600504e+003;1.788678e+001
3.602433e+003;1.787672e+001
3.604361e+003;1.786782e+001
3.606290e+003;1.785480e+001
3.608218e+003;1.783167e+001
3.610146e+003;1.782571e+001
3.612075e+003;1.781536e+001
3.614004e+003;1.780228e+001
3.615932e+003;1.778625e+001
3.617861e+003;1.777290e+001
3.619789e+003;1.776099e+001
3.621718e+003;1.775850e+001
3.623646e+003;1.773744e+001
3.625574e+003;1.772023e+001
3.627503e+003;1.770919e+001
3.629432e+003;1.770059e+001
3.631360e+003;1.768478e+001
3.633289e+003;1.767269e+001
3.635217e+003;1.765795e+001
3.637146e+003;1.765531e+001
3.639074e+003;1.764279e+001
3.641002e+003;1.762393e+001
3.642931e+003;1.761063e+001
3.644860e+003;1.760771e+001
3.646788e+003;1.759099e+001
3.648717e+003;1.757438e+001
3.650645e+003;1.755849e+001
3.652573e+003;1.755486e+001
3.654502e+003;1.754581e+001
3.656430e+003;1.752944e+001
3.658359e+003;1.751195e+001
3.660288e+003;1.750782e+001
3.662216e+003;1.749773e+001
3.664145e+003;1.748783e+001
3.666073e+003;1.746705e+001
3.668001e+003;1.745390e+001
3.669930e+003;1.744731e+001
3.671858e+003;1.743981e+001
3.673787e+003;1.741722e+001
3.675716e+003;1.740734e+001
3.677644e+003;1.739970e+001
3.679573e+003;1.739396e+001
3.681501e+003;1.738045e+001
3.683429e+003;1.736387e+001
3.685358e+003;1.735412e+001
3.687286e+003;1.735128e+001
3.689215e+003;1.732919e+001
3.691144e+003;1.731728e+001
3.693072e+003;1.731210e+001
3.695000e+003;1.730572e+001
3.696929e+003;1.729454e+001
3.698857e+003;1.728136e+001
3.700786e+003;1.726243e+001
3.702714e+003;1.726495e+001
3.704643e+003;1.725412e+001
3.706572e+003;1.723503e+001
3.708500e+003;1.722466e+001
3.710428e+003;1.721827e+001
3.712357e+003;1.720579e+001
3.714285e+003;1.720136e+001
3.716214e+003;1.718040e+001
3.718142e+003;1.717395e+001
3.720071e+003;1.717225e+001
3.722000e+003;1.715468e+001
3.723928e+003;1.713637e+001
3.725856e+003;1.713313e+001
3.727785e+003;1.711958e+001
3.729713e+003;1.711378e+001
3.731642e+003;1.709613e+001
3.733570e+003;1.708022e+001
3.735499e+003;1.707973e+001
3.737427e+003;1.707613e+001
3.739356e+003;1.705354e+001
3.741284e+003;1.705176e+001
3.743213e+003;1.704032e+001
3.745141e+003;1.703368e+001
3.747070e+003;1.703035e+001
3.748998e+003;1.701133e+001
3.750927e+003;1.699889e+001
3.752855e+003;1.700880e+001
3.754784e+003;1.699285e+001
3.756712e+003;1.697919e+001
3.758641e+003;1.697358e+001
3.760569e+003;1.696374e+001
3.762498e+003;1.695634e+001
3.764426e+003;1.694744e+001
3.766355e+003;1.692454e+001
3.768283e+003;1.692838e+001
3.770212e+003;1.692468e+001
3.772140e+003;1.690635e+001
3.774069e+003;1.689602e+001
3.775997e+003;1.689205e+001
3.777926e+003;1.687952e+001
3.779854e+003;1.687742e+001
3.781783e+003;1.685678e+001
3.783711e+003;1.684831e+001
3.785640e+003;1.685162e+001
3.787568e+003;1.683722e+001
3.789497e+003;1.681949e+001
3.791425e+003;1.681833e+001
3.793354e+003;1.680480e+001
3.795282e+003;1.680267e+001
3.797211e+003;1.679122e+001
3.799139e+003;1.676983e+001
3.801068e+003;1.676905e+001
3.802996e+003;1.676997e+001
3.804925e+003;1.674512e+001
3.806853e+003;1.674067e+001
3.808782e+003;1.673516e+001
3.810710e+003;1.672832e+001
3.812639e+003;1.672590e+001
3.814567e+003;1.670412e+001
3.816496e+003;1.668749e+001
3.818424e+003;1.670369e+001
3.820353e+003;1.668430e+001
3.822281e+003;1.666804e+001
3.824210e+003;1.666804e+001
3.826138e+003;1.665804e+001
3.828067e+003;1.665260e+001
3.829995e+003;1.665026e+001
3.831924e+003;1.662265e+001
3.833852e+003;1.662683e+001
3.835781e+003;1.662669e+001
3.837709e+003;1.660129e+001
3.839638e+003;1.659467e+001
3.841566e+003;1.659537e+001
3.843495e+003;1.657925e+001
3.845423e+003;1.658437e+001
3.847352e+003;1.656858e+001
3.849280e+003;1.655256e+001
3.851209e+003;1.655732e+001
3.853137e+003;1.654536e+001
3.855066e+003;1.652593e+001
3.856994e+003;1.653180e+001
3.858923e+003;1.652048e+001
3.860851e+003;1.651763e+001
3.862780e+003;1.651110e+001
3.864708e+003;1.648815e+001
3.866637e+003;1.648561e+001
3.868565e+003;1.649150e+001
3.870494e+003;1.646799e+001
3.872422e+003;1.646622e+001
3.874351e+003;1.646167e+001
3.876279e+003;1.645225e+001
3.878208e+003;1.645308e+001
3.880136e+003;1.643785e+001
3.882065e+003;1.641859e+001
3.883993e+003;1.643423e+001
3.885922e+003;1.642030e+001
3.887850e+003;1.640420e+001
3.889779e+003;1.640185e+001
3.891707e+003;1.638880e+001
3.893636e+003;1.638589e+001
3.895564e+003;1.639084e+001
3.897493e+003;1.635806e+001
3.899421e+003;1.635838e+001
3.901350e+003;1.636746e+001
3.903278e+003;1.634345e+001
3.905207e+003;1.633720e+001
3.907135e+003;1.634132e+001
3.909064e+003;1.632183e+001
3.910992e+003;1.633223e+001
3.912921e+003;1.631775e+001
3.914849e+003;1.629300e+001
3.916778e+003;1.630661e+001
3.918706e+003;1.630361e+001
3.920635e+003;1.627611e+001
3.922563e+003;1.628241e+001
3.924492e+003;1.627131e+001
3.926420e+003;1.626458e+001
3.928349e+003;1.626877e+001
3.930277e+003;1.624567e+001
3.932206e+003;1.623539e+001
3.934134e+003;1.625364e+001
3.936063e+003;1.622987e+001
3.937991e+003;1.621936e+001
3.939920e+003;1.622124e+001
3.941848e+003;1.620919e+001
3.943777e+003;1.621071e+001
3.945705e+003;1.620534e+001
3.947634e+003;1.617833e+001
3.949562e+003;1.619132e+001
3.951490e+003;1.618762e+001
3.953419e+003;1.616735e+001
3.955348e+003;1.616635e+001
3.957276e+003;1.615945e+001
3.959205e+003;1.615249e+001
3.961133e+003;1.616275e+001
3.963062e+003;1.613541e+001
3.964990e+003;1.613016e+001
3.966918e+003;1.614226e+001
3.968847e+003;1.612225e+001
3.970776e+003;1.611111e+001
3.972704e+003;1.611532e+001
3.974633e+003;1.609611e+001
3.976561e+003;1.610880e+001
3.978490e+003;1.610034e+001
3.980418e+003;1.607213e+001
3.982346e+003;1.608560e+001
3.984275e+003;1.608822e+001
3.986204e+003;1.605926e+001
3.988132e+003;1.606906e+001
3.990061e+003;1.605860e+001
3.991989e+003;1.604869e+001
3.993917e+003;1.606213e+001
3.995846e+003;1.603916e+001
3.997774e+003;1.602144e+001
3.999703e+003;1.604672e+001
4.001632e+003;0.000000e+000
