3.991989e+002;4.357218e+001
4.011274e+002;4.354570e+001
4.030559e+002;4.347028e+001
4.049844e+002;4.370265e+001
4.069129e+002;4.362983e+001
4.088414e+002;4.329072e+001
4.107699e+002;4.344159e+001
4.126984e+002;4.355143e+001
4.146269e+002;4.326183e+001
4.165554e+002;4.293985e+001
4.184839e+002;4.309686e+001
4.204124e+002;4.308810e+001
4.223409e+002;4.288738e+001
4.242694e+002;4.281252e+001
4.261979e+002;4.264379e+001
4.281264e+002;4.236430e+001
4.300549e+002;4.203745e+001
4.319834e+002;4.185172e+001
4.339119e+002;4.156646e+001
4.358404e+002;4.132595e+001
4.377689e+002;4.121944e+001
4.396974e+002;4.103537e+001
4.416259e+002;4.062305e+001
4.435544e+002;4.035338e+001
4.454829e+002;4.015326e+001
4.474114e+002;3.982628e+001
4.493399e+002;3.952926e+001
4.512684e+002;3.928993e+001
4.531969e+002;3.909539e+001
4.551254e+002;3.894342e+001
4.570539e+002;3.880728e+001
4.589824e+002;3.874615e+001
4.609109e+002;3.873212e+001
4.628394e+002;3.884336e+001
4.647679e+002;3.898072e+001
4.666964e+002;3.913671e+001
4.686248e+002;3.944973e+001
4.705533e+002;3.988319e+001
4.724818e+002;4.024804e+001
4.744103e+002;4.063904e+001
4.763388e+002;4.096551e+001
4.782673e+002;4.123171e+001
4.801958e+002;4.141524e+001
4.821243e+002;4.155987e+001
4.840528e+002;4.169771e+001
4.859813e+002;4.174708e+001
4.879098e+002;4.175286e+001
4.898383e+002;4.184372e+001
4.917668e+002;4.188552e+001
4.936953e+002;4.189555e+001
4.956238e+002;4.194910e+001
4.975523e+002;4.195549e+001
4.994808e+002;4.186074e+001
5.014093e+002;4.172981e+001
5.033378e+002;4.164319e+001
5.052663e+002;4.155894e+001
5.071948e+002;4.139269e+001
5.091233e+002;4.110543e+001
5.110518e+002;4.075574e+001
5.129803e+002;4.043851e+001
5.149088e+002;4.048671e+001
5.168373e+002;4.084788e+001
5.187657e+002;4.120084e+001
5.206943e+002;4.136349e+001
5.226227e+002;4.143882e+001
5.245513e+002;4.146989e+001
5.264797e+002;4.145255e+001
5.284083e+002;4.140960e+001
5.303367e+002;4.137457e+001
5.322653e+002;4.130759e+001
5.341937e+002;4.125690e+001
5.361223e+002;4.118817e+001
5.380507e+002;4.107372e+001
5.399792e+002;4.095667e+001
5.419077e+002;4.083096e+001
5.438362e+002;4.064678e+001
5.457647e+002;4.047371e+001
5.476932e+002;4.030536e+001
5.496217e+002;4.014501e+001
5.515502e+002;3.999737e+001
5.534787e+002;3.985162e+001
5.554072e+002;3.965910e+001
5.573357e+002;3.943853e+001
5.592642e+002;3.922427e+001
5.611927e+002;3.901790e+001
5.631212e+002;3.880671e+001
5.650497e+002;3.861683e+001
5.669782e+002;3.847026e+001
5.689067e+002;3.851086e+001
5.708352e+002;3.872112e+001
5.727637e+002;3.885992e+001
5.746922e+002;3.883391e+001
5.766207e+002;3.871802e+001
5.785492e+002;3.855277e+001
5.804777e+002;3.833587e+001
5.824062e+002;3.802320e+001
5.843347e+002;3.762230e+001
5.862632e+002;3.715547e+001
5.881917e+002;3.661332e+001
5.901202e+002;3.596007e+001
5.920486e+002;3.517727e+001
5.939772e+002;3.426501e+001
5.959056e+002;3.322308e+001
5.978342e+002;3.202205e+001
5.997626e+002;3.052672e+001
6.016912e+002;2.888878e+001
6.036196e+002;2.757945e+001
6.055482e+002;2.658584e+001
6.074766e+002;2.566725e+001
6.094052e+002;2.494896e+001
6.113336e+002;2.484439e+001
6.132621e+002;2.520488e+001
6.151906e+002;2.543361e+001
6.171191e+002;2.544775e+001
6.190476e+002;2.545484e+001
6.209761e+002;2.562061e+001
6.229046e+002;2.654072e+001
6.248331e+002;2.862445e+001
6.267616e+002;3.135824e+001
6.286901e+002;3.403899e+001
6.306186e+002;3.588206e+001
6.325471e+002;3.669164e+001
6.344756e+002;3.690723e+001
6.364041e+002;3.697335e+001
6.383326e+002;3.700341e+001
6.402611e+002;3.703405e+001
6.421896e+002;3.709413e+001
6.441181e+002;3.717509e+001
6.460466e+002;3.725874e+001
6.479751e+002;3.734225e+001
6.499036e+002;3.743124e+001
6.518321e+002;3.752202e+001
6.537606e+002;3.761533e+001
6.556891e+002;3.770673e+001
6.576176e+002;3.781419e+001
6.595461e+002;3.796095e+001
6.614745e+002;3.814696e+001
6.634031e+002;3.833373e+001
6.653315e+002;3.851267e+001
6.672601e+002;3.869322e+001
6.691885e+002;3.887901e+001
6.711171e+002;3.905345e+001
6.730455e+002;3.924297e+001
6.749741e+002;3.943395e+001
6.769025e+002;3.962542e+001
6.788311e+002;3.981849e+001
6.807595e+002;3.999247e+001
6.826880e+002;4.013755e+001
6.846165e+002;4.027657e+001
6.865450e+002;4.043763e+001
6.884735e+002;4.062798e+001
6.904020e+002;4.082395e+001
6.923305e+002;4.102870e+001
6.942590e+002;4.124021e+001
6.961875e+002;4.148090e+001
6.981160e+002;4.172613e+001
7.000445e+002;4.191838e+001
7.019730e+002;4.203926e+001
7.039015e+002;4.210609e+001
7.058300e+002;4.211147e+001
7.077585e+002;4.203697e+001
7.096870e+002;4.186858e+001
7.116155e+002;4.159473e+001
7.135440e+002;4.120176e+001
7.154725e+002;4.078027e+001
7.174010e+002;4.043644e+001
7.193295e+002;4.018398e+001
7.212580e+002;3.995646e+001
7.231865e+002;3.972839e+001
7.251150e+002;3.950532e+001
7.270435e+002;3.930142e+001
7.289720e+002;3.911250e+001
7.309005e+002;3.892650e+001
7.328290e+002;3.873521e+001
7.347574e+002;3.855402e+001
7.366860e+002;3.840367e+001
7.386144e+002;3.833244e+001
7.405430e+002;3.845762e+001
7.424714e+002;3.876612e+001
7.444000e+002;3.908680e+001
7.463284e+002;3.932719e+001
7.482570e+002;3.950586e+001
7.501854e+002;3.965069e+001
7.521140e+002;3.977337e+001
7.540424e+002;3.988465e+001
7.559709e+002;3.997545e+001
7.578994e+002;4.004852e+001
7.598279e+002;4.010221e+001
7.617564e+002;4.013939e+001
7.636849e+002;4.017346e+001
7.656134e+002;4.019882e+001
7.675419e+002;4.021111e+001
7.694704e+002;4.021675e+001
7.713989e+002;4.020804e+001
7.733274e+002;4.018600e+001
7.752559e+002;4.014341e+001
7.771844e+002;4.010038e+001
7.791129e+002;4.007047e+001
7.810414e+002;4.004568e+001
7.829699e+002;4.002472e+001
7.848984e+002;4.000338e+001
7.868269e+002;3.997963e+001
7.887554e+002;3.995953e+001
7.906839e+002;3.996128e+001
7.926124e+002;3.999861e+001
7.945409e+002;4.008990e+001
7.964694e+002;4.026507e+001
7.983979e+002;4.051166e+001
8.003264e+002;4.063131e+001
8.022549e+002;4.052953e+001
8.041833e+002;4.035496e+001
8.061119e+002;4.017747e+001
8.080403e+002;4.003328e+001
8.099689e+002;3.992630e+001
8.118973e+002;3.983440e+001
8.138259e+002;3.972964e+001
8.157543e+002;3.965167e+001
8.176829e+002;3.964626e+001
8.196113e+002;3.971491e+001
8.215399e+002;3.983025e+001
8.234683e+002;3.997782e+001
8.253969e+002;4.014560e+001
8.273253e+002;4.033543e+001
8.292538e+002;4.054784e+001
8.311823e+002;4.073999e+001
8.331108e+002;4.085611e+001
8.350393e+002;4.088549e+001
8.369678e+002;4.082958e+001
8.388963e+002;4.071838e+001
8.408248e+002;4.058633e+001
8.427533e+002;4.047675e+001
8.446818e+002;4.041970e+001
8.466103e+002;4.043551e+001
8.485388e+002;4.049112e+001
8.504673e+002;4.054934e+001
8.523958e+002;4.059630e+001
8.543243e+002;4.063163e+001
8.562528e+002;4.064373e+001
8.581813e+002;4.062741e+001
8.601098e+002;4.056849e+001
8.620383e+002;4.045798e+001
8.639668e+002;4.034180e+001
8.658953e+002;4.024860e+001
8.678238e+002;4.015497e+001
8.697523e+002;4.004612e+001
8.716808e+002;3.991608e+001
8.736093e+002;3.976735e+001
8.755378e+002;3.958941e+001
8.774662e+002;3.938577e+001
8.793948e+002;3.917918e+001
8.813232e+002;3.898389e+001
8.832518e+002;3.881523e+001
8.851802e+002;3.868836e+001
8.871088e+002;3.860025e+001
8.890372e+002;3.856767e+001
8.909658e+002;3.858765e+001
8.928942e+002;3.864129e+001
8.948227e+002;3.874518e+001
8.967512e+002;3.888845e+001
8.986797e+002;3.904263e+001
9.006082e+002;3.920938e+001
9.025367e+002;3.936339e+001
9.044652e+002;3.950561e+001
9.063937e+002;3.964858e+001
9.083222e+002;3.979028e+001
9.102507e+002;3.994749e+001
9.121792e+002;4.013676e+001
9.141077e+002;4.032396e+001
9.160362e+002;4.048496e+001
9.179647e+002;4.061975e+001
9.198932e+002;4.073212e+001
9.218217e+002;4.084017e+001
9.237502e+002;4.095246e+001
9.256786e+002;4.105018e+001
9.276072e+002;4.113230e+001
9.295356e+002;4.120367e+001
9.314642e+002;4.126166e+001
9.333926e+002;4.131389e+001
9.353212e+002;4.136769e+001
9.372496e+002;4.140824e+001
9.391782e+002;4.143780e+001
9.411066e+002;4.145544e+001
9.430352e+002;4.144290e+001
9.449636e+002;4.141000e+001
9.468922e+002;4.137033e+001
9.488206e+002;4.132904e+001
9.507491e+002;4.129048e+001
9.526776e+002;4.125217e+001
9.546061e+002;4.121455e+001
9.565346e+002;4.117510e+001
9.584631e+002;4.113815e+001
9.603916e+002;4.111226e+001
9.623201e+002;4.110501e+001
9.642486e+002;4.110257e+001
9.661771e+002;4.110140e+001
9.681056e+002;4.110713e+001
9.700341e+002;4.111434e+001
9.719626e+002;4.112658e+001
9.738911e+002;4.115405e+001
9.758196e+002;4.119383e+001
9.777481e+002;4.123458e+001
9.796766e+002;4.126984e+001
9.816051e+002;4.129964e+001
9.835336e+002;4.133232e+001
9.854621e+002;4.136691e+001
9.873906e+002;4.140250e+001
9.893191e+002;4.143674e+001
9.912476e+002;4.145248e+001
9.931761e+002;4.144336e+001
9.951046e+002;4.141742e+001
9.970331e+002;4.137403e+001
9.989615e+002;4.131610e+001
1.000890e+003;4.124573e+001
1.002819e+003;4.115363e+001
1.004747e+003;4.103322e+001
1.006676e+003;4.088717e+001
1.008604e+003;4.071119e+001
1.010533e+003;4.051194e+001
1.012461e+003;4.029681e+001
1.014390e+003;4.006780e+001
1.016318e+003;3.981933e+001
1.018247e+003;3.954187e+001
1.020175e+003;3.923841e+001
1.022104e+003;3.892091e+001
1.024032e+003;3.859105e+001
1.025961e+003;3.825297e+001
1.027889e+003;3.791208e+001
1.029818e+003;3.756536e+001
1.031746e+003;3.720932e+001
1.033675e+003;3.685441e+001
1.035603e+003;3.650545e+001
1.037531e+003;3.616451e+001
1.039460e+003;3.583353e+001
1.041389e+003;3.550683e+001
1.043317e+003;3.518417e+001
1.045245e+003;3.487149e+001
1.047174e+003;3.456986e+001
1.049103e+003;3.428852e+001
1.051031e+003;3.402636e+001
1.052959e+003;3.377979e+001
1.054888e+003;3.354947e+001
1.056817e+003;3.333220e+001
1.058745e+003;3.312679e+001
1.060673e+003;3.294347e+001
1.062602e+003;3.278255e+001
1.064531e+003;3.264375e+001
1.066459e+003;3.252510e+001
1.068387e+003;3.241603e+001
1.070316e+003;3.231682e+001
1.072245e+003;3.223334e+001
1.074173e+003;3.216237e+001
1.076101e+003;3.210772e+001
1.078030e+003;3.206914e+001
1.079958e+003;3.203484e+001
1.081887e+003;3.200825e+001
1.083815e+003;3.198884e+001
1.085744e+003;3.196920e+001
1.087672e+003;3.196003e+001
1.089601e+003;3.196217e+001
1.091529e+003;3.197749e+001
1.093458e+003;3.201505e+001
1.095386e+003;3.208613e+001
1.097315e+003;3.220045e+001
1.099243e+003;3.238035e+001
1.101172e+003;3.263885e+001
1.103100e+003;3.298724e+001
1.105029e+003;3.342877e+001
1.106957e+003;3.395179e+001
1.108886e+003;3.454141e+001
1.110814e+003;3.518800e+001
1.112743e+003;3.587136e+001
1.114671e+003;3.658382e+001
1.116600e+003;3.731227e+001
1.118528e+003;3.803228e+001
1.120457e+003;3.872521e+001
1.122385e+003;3.938293e+001
1.124314e+003;3.999616e+001
1.126242e+003;4.056485e+001
1.128171e+003;4.107455e+001
1.130099e+003;4.150878e+001
1.132028e+003;4.185962e+001
1.133956e+003;4.212992e+001
1.135885e+003;4.232924e+001
1.137813e+003;4.248609e+001
1.139742e+003;4.261207e+001
1.141670e+003;4.272088e+001
1.143599e+003;4.281711e+001
1.145527e+003;4.289515e+001
1.147456e+003;4.295480e+001
1.149384e+003;4.300648e+001
1.151313e+003;4.305124e+001
1.153241e+003;4.309535e+001
1.155170e+003;4.314126e+001
1.157098e+003;4.317996e+001
1.159027e+003;4.321461e+001
1.160955e+003;4.324797e+001
1.162884e+003;4.327380e+001
1.164812e+003;4.330781e+001
1.166741e+003;4.334651e+001
1.168669e+003;4.338664e+001
1.170598e+003;4.342767e+001
1.172526e+003;4.346624e+001
1.174455e+003;4.349543e+001
1.176383e+003;4.353303e+001
1.178312e+003;4.356869e+001
1.180240e+003;4.361542e+001
1.182169e+003;4.367274e+001
1.184097e+003;4.371417e+001
1.186026e+003;4.375898e+001
1.187954e+003;4.380658e+001
1.189883e+003;4.385390e+001
1.191811e+003;4.390600e+001
1.193740e+003;4.396492e+001
1.195668e+003;4.401943e+001
1.197597e+003;4.407051e+001
1.199525e+003;4.411855e+001
1.201454e+003;4.416222e+001
1.203382e+003;4.421052e+001
1.205311e+003;4.426092e+001
1.207239e+003;4.430877e+001
1.209168e+003;4.435298e+001
1.211096e+003;4.438997e+001
1.213025e+003;4.441947e+001
1.214953e+003;4.445005e+001
1.216882e+003;4.447915e+001
1.218810e+003;4.450566e+001
1.220739e+003;4.453029e+001
1.222667e+003;4.454819e+001
1.224596e+003;4.455879e+001
1.226524e+003;4.457280e+001
1.228453e+003;4.459061e+001
1.230381e+003;4.461362e+001
1.232310e+003;4.463910e+001
1.234238e+003;4.465929e+001
1.236167e+003;4.467147e+001
1.238095e+003;4.468036e+001
1.240024e+003;4.468357e+001
1.241952e+003;4.469118e+001
1.243881e+003;4.469969e+001
1.245809e+003;4.470242e+001
1.247738e+003;4.470095e+001
1.249666e+003;4.469589e+001
1.251595e+003;4.468398e+001
1.253523e+003;4.467593e+001
1.255452e+003;4.467022e+001
1.257380e+003;4.466652e+001
1.259309e+003;4.466463e+001
1.261237e+003;4.465992e+001
1.263166e+003;4.464935e+001
1.265094e+003;4.464571e+001
1.267023e+003;4.464402e+001
1.268951e+003;4.464393e+001
1.270880e+003;4.464497e+001
1.272808e+003;4.463801e+001
1.274737e+003;4.462062e+001
1.276665e+003;4.460377e+001
1.278594e+003;4.458398e+001
1.280522e+003;4.456514e+001
1.282451e+003;4.454887e+001
1.284379e+003;4.453131e+001
1.286308e+003;4.450900e+001
1.288236e+003;4.448814e+001
1.290165e+003;4.446590e+001
1.292093e+003;4.444932e+001
1.294022e+003;4.443727e+001
1.295950e+003;4.442913e+001
1.297879e+003;4.442276e+001
1.299807e+003;4.441774e+001
1.301736e+003;4.441031e+001
1.303664e+003;4.440999e+001
1.305593e+003;4.441477e+001
1.307521e+003;4.442438e+001
1.309450e+003;4.443570e+001
1.311378e+003;4.444796e+001
1.313307e+003;4.445704e+001
1.315235e+003;4.446896e+001
1.317164e+003;4.448348e+001
1.319092e+003;4.450462e+001
1.321021e+003;4.452709e+001
1.322949e+003;4.454888e+001
1.324878e+003;4.456593e+001
1.326806e+003;4.458135e+001
1.328735e+003;4.459378e+001
1.330663e+003;4.461098e+001
1.332592e+003;4.462785e+001
1.334520e+003;4.464203e+001
1.336449e+003;4.464986e+001
1.338377e+003;4.465405e+001
1.340306e+003;4.465306e+001
1.342234e+003;4.465257e+001
1.344163e+003;4.465103e+001
1.346091e+003;4.464802e+001
1.348020e+003;4.463919e+001
1.349948e+003;4.462757e+001
1.351877e+003;4.460911e+001
1.353805e+003;4.459036e+001
1.355734e+003;4.457392e+001
1.357662e+003;4.455928e+001
1.359591e+003;4.454242e+001
1.361519e+003;4.452863e+001
1.363448e+003;4.450906e+001
1.365376e+003;4.448901e+001
1.367305e+003;4.447295e+001
1.369233e+003;4.446140e+001
1.371161e+003;4.445142e+001
1.373090e+003;4.444547e+001
1.375019e+003;4.443187e+001
1.376947e+003;4.441986e+001
1.378875e+003;4.440862e+001
1.380804e+003;4.440165e+001
1.382733e+003;4.439805e+001
1.384661e+003;4.439807e+001
1.386589e+003;4.439486e+001
1.388518e+003;4.439140e+001
1.390447e+003;4.438186e+001
1.392375e+003;4.437323e+001
1.394303e+003;4.436781e+001
1.396232e+003;4.437071e+001
1.398161e+003;4.436886e+001
1.400089e+003;4.436501e+001
1.402017e+003;4.435348e+001
1.403946e+003;4.434210e+001
1.405875e+003;4.433338e+001
1.407803e+003;4.432518e+001
1.409731e+003;4.431350e+001
1.411660e+003;4.430229e+001
1.413589e+003;4.428024e+001
1.415517e+003;4.425674e+001
1.417445e+003;4.422571e+001
1.419374e+003;4.419225e+001
1.421302e+003;4.417551e+001
1.423231e+003;4.415516e+001
1.425159e+003;4.411658e+001
1.427088e+003;4.407944e+001
1.429016e+003;4.403704e+001
1.430945e+003;4.399529e+001
1.432873e+003;4.395884e+001
1.434802e+003;4.392233e+001
1.436730e+003;4.388261e+001
1.438659e+003;4.384693e+001
1.440587e+003;4.380801e+001
1.442516e+003;4.377671e+001
1.444444e+003;4.375788e+001
1.446373e+003;4.374716e+001
1.448301e+003;4.374231e+001
1.450230e+003;4.374621e+001
1.452158e+003;4.375090e+001
1.454087e+003;4.377199e+001
1.456015e+003;4.380753e+001
1.457944e+003;4.384232e+001
1.459872e+003;4.388441e+001
1.461801e+003;4.393340e+001
1.463729e+003;4.397492e+001
1.465658e+003;4.401981e+001
1.467586e+003;4.406019e+001
1.469515e+003;4.410033e+001
1.471443e+003;4.414291e+001
1.473372e+003;4.419099e+001
1.475300e+003;4.422839e+001
1.477229e+003;4.426508e+001
1.479157e+003;4.429432e+001
1.481086e+003;4.432452e+001
1.483014e+003;4.435653e+001
1.484943e+003;4.438479e+001
1.486871e+003;4.440707e+001
1.488800e+003;4.443019e+001
1.490728e+003;4.443887e+001
1.492657e+003;4.445401e+001
1.494585e+003;4.446442e+001
1.496514e+003;4.446981e+001
1.498442e+003;4.448597e+001
1.500371e+003;4.450147e+001
1.502299e+003;4.450168e+001
1.504228e+003;4.450622e+001
1.506156e+003;4.449855e+001
1.508085e+003;4.449511e+001
1.510013e+003;4.450655e+001
1.511942e+003;4.450724e+001
1.513870e+003;4.449972e+001
1.515799e+003;4.449944e+001
1.517727e+003;4.449080e+001
1.519656e+003;4.447528e+001
1.521584e+003;4.447211e+001
1.523513e+003;4.447671e+001
1.525441e+003;4.447082e+001
1.527370e+003;4.446511e+001
1.529298e+003;4.445022e+001
1.531227e+003;4.444247e+001
1.533155e+003;4.444006e+001
1.535084e+003;4.442904e+001
1.537012e+003;4.442401e+001
1.538941e+003;4.441561e+001
1.540869e+003;4.439220e+001
1.542798e+003;4.438773e+001
1.544726e+003;4.437874e+001
1.546655e+003;4.436874e+001
1.548583e+003;4.436558e+001
1.550512e+003;4.435767e+001
1.552440e+003;4.433422e+001
1.554369e+003;4.432278e+001
1.556297e+003;4.431620e+001
1.558226e+003;4.430571e+001
1.560154e+003;4.429532e+001
1.562083e+003;4.428891e+001
1.564011e+003;4.427389e+001
1.565940e+003;4.426770e+001
1.567868e+003;4.425239e+001
1.569797e+003;4.424216e+001
1.571725e+003;4.423643e+001
1.573654e+003;4.421874e+001
1.575582e+003;4.419348e+001
1.577511e+003;4.419220e+001
1.579439e+003;4.418337e+001
1.581368e+003;4.417611e+001
1.583296e+003;4.416794e+001
1.585225e+003;4.415465e+001
1.587153e+003;4.414711e+001
1.589082e+003;4.413647e+001
1.591010e+003;4.411674e+001
1.592939e+003;4.410892e+001
1.594867e+003;4.409616e+001
1.596796e+003;4.408464e+001
1.598724e+003;4.407965e+001
1.600653e+003;4.406642e+001
1.602581e+003;4.404932e+001
1.604510e+003;4.404302e+001
1.606438e+003;4.402616e+001
1.608367e+003;4.401508e+001
1.610295e+003;4.400955e+001
1.612224e+003;4.399623e+001
1.614152e+003;4.398222e+001
1.616081e+003;4.396724e+001
1.618009e+003;4.394867e+001
1.619938e+003;4.394619e+001
1.621866e+003;4.393932e+001
1.623795e+003;4.392696e+001
1.625723e+003;4.391875e+001
1.627652e+003;4.390742e+001
1.629580e+003;4.388888e+001
1.631509e+003;4.388441e+001
1.633437e+003;4.387439e+001
1.635366e+003;4.386275e+001
1.637294e+003;4.385476e+001
1.639223e+003;4.384067e+001
1.641151e+003;4.382131e+001
1.643080e+003;4.381575e+001
1.645008e+003;4.380136e+001
1.646937e+003;4.378800e+001
1.648865e+003;4.377911e+001
1.650794e+003;4.375737e+001
1.652722e+003;4.373014e+001
1.654651e+003;4.373288e+001
1.656579e+003;4.372188e+001
1.658508e+003;4.371469e+001
1.660436e+003;4.370615e+001
1.662365e+003;4.369087e+001
1.664293e+003;4.367856e+001
1.666222e+003;4.366410e+001
1.668150e+003;4.363848e+001
1.670079e+003;4.363235e+001
1.672007e+003;4.362463e+001
1.673936e+003;4.360770e+001
1.675864e+003;4.359981e+001
1.677793e+003;4.358939e+001
1.679721e+003;4.357010e+001
1.681650e+003;4.356284e+001
1.683578e+003;4.354918e+001
1.685507e+003;4.354082e+001
1.687435e+003;4.352802e+001
1.689364e+003;4.350782e+001
1.691292e+003;4.349021e+001
1.693221e+003;4.348127e+001
1.695149e+003;4.346125e+001
1.697078e+003;4.344645e+001
1.699006e+003;4.342317e+001
1.700935e+003;4.340239e+001
1.702863e+003;4.339013e+001
1.704792e+003;4.337130e+001
1.706720e+003;4.334313e+001
1.708649e+003;4.333005e+001
1.710577e+003;4.330904e+001
1.712505e+003;4.328563e+001
1.714434e+003;4.326918e+001
1.716363e+003;4.324908e+001
1.718291e+003;4.322340e+001
1.720219e+003;4.321502e+001
1.722148e+003;4.319896e+001
1.724077e+003;4.318815e+001
1.726005e+003;4.318114e+001
1.727933e+003;4.316536e+001
1.729862e+003;4.315374e+001
1.731791e+003;4.315145e+001
1.733719e+003;4.313770e+001
1.735647e+003;4.313743e+001
1.737576e+003;4.313384e+001
1.739505e+003;4.312079e+001
1.741433e+003;4.311153e+001
1.743361e+003;4.310192e+001
1.745290e+003;4.308577e+001
1.747219e+003;4.308249e+001
1.749147e+003;4.306655e+001
1.751075e+003;4.304893e+001
1.753004e+003;4.304118e+001
1.754932e+003;4.302623e+001
1.756861e+003;4.300685e+001
1.758789e+003;4.300235e+001
1.760718e+003;4.298493e+001
1.762646e+003;4.297092e+001
1.764575e+003;4.295733e+001
1.766503e+003;4.293333e+001
1.768432e+003;4.291469e+001
1.770360e+003;4.290851e+001
1.772289e+003;4.288956e+001
1.774217e+003;4.287951e+001
1.776146e+003;4.286517e+001
1.778074e+003;4.284411e+001
1.780003e+003;4.283006e+001
1.781931e+003;4.281764e+001
1.783860e+003;4.279467e+001
1.785788e+003;4.278822e+001
1.787717e+003;4.277245e+001
1.789645e+003;4.275138e+001
1.791574e+003;4.273571e+001
1.793502e+003;4.271908e+001
1.795431e+003;4.270237e+001
1.797359e+003;4.269625e+001
1.799288e+003;4.267547e+001
1.801216e+003;4.265974e+001
1.803145e+003;4.264676e+001
1.805073e+003;4.262474e+001
1.807002e+003;4.260785e+001
1.808930e+003;4.259929e+001
1.810859e+003;4.257555e+001
1.812787e+003;4.256219e+001
1.814716e+003;4.254564e+001
1.816644e+003;4.252221e+001
1.818573e+003;4.250795e+001
1.820501e+003;4.249441e+001
1.822430e+003;4.246983e+001
1.824358e+003;4.246007e+001
1.826287e+003;4.243978e+001
1.828215e+003;4.241798e+001
1.830144e+003;4.240423e+001
1.832072e+003;4.238395e+001
1.834001e+003;4.236179e+001
1.835929e+003;4.235334e+001
1.837858e+003;4.232862e+001
1.839786e+003;4.230962e+001
1.841715e+003;4.229395e+001
1.843643e+003;4.227036e+001
1.845572e+003;4.225210e+001
1.847500e+003;4.224080e+001
1.849429e+003;4.221352e+001
1.851357e+003;4.219947e+001
1.853286e+003;4.218015e+001
1.855214e+003;4.215307e+001
1.857143e+003;4.213712e+001
1.859071e+003;4.212180e+001
1.861000e+003;4.209563e+001
1.862928e+003;4.208420e+001
1.864857e+003;4.205854e+001
1.866785e+003;4.203214e+001
1.868714e+003;4.201810e+001
1.870642e+003;4.199769e+001
1.872571e+003;4.197394e+001
1.874499e+003;4.196348e+001
1.876428e+003;4.193542e+001
1.878356e+003;4.191356e+001
1.880285e+003;4.189587e+001
1.882213e+003;4.186840e+001
1.884142e+003;4.184819e+001
1.886070e+003;4.183585e+001
1.887999e+003;4.180338e+001
1.889927e+003;4.178356e+001
1.891856e+003;4.176161e+001
1.893784e+003;4.173325e+001
1.895713e+003;4.171495e+001
1.897641e+003;4.169423e+001
1.899570e+003;4.166082e+001
1.901498e+003;4.164536e+001
1.903427e+003;4.161560e+001
1.905355e+003;4.158395e+001
1.907284e+003;4.156387e+001
1.909212e+003;4.153602e+001
1.911141e+003;4.150426e+001
1.913069e+003;4.148439e+001
1.914998e+003;4.144376e+001
1.916926e+003;4.141332e+001
1.918855e+003;4.138870e+001
1.920783e+003;4.134975e+001
1.922712e+003;4.131707e+001
1.924640e+003;4.129150e+001
1.926569e+003;4.124488e+001
1.928497e+003;4.121284e+001
1.930426e+003;4.117527e+001
1.932354e+003;4.112936e+001
1.934283e+003;4.109666e+001
1.936211e+003;4.105919e+001
1.938140e+003;4.100510e+001
1.940068e+003;4.096988e+001
1.941997e+003;4.092080e+001
1.943925e+003;4.087008e+001
1.945854e+003;4.083105e+001
1.947782e+003;4.077916e+001
1.949711e+003;4.072408e+001
1.951639e+003;4.068532e+001
1.953568e+003;4.062283e+001
1.955496e+003;4.056898e+001
1.957425e+003;4.052169e+001
1.959353e+003;4.046074e+001
1.961282e+003;4.040732e+001
1.963210e+003;4.035818e+001
1.965139e+003;4.028742e+001
1.967067e+003;4.023869e+001
1.968996e+003;4.018446e+001
1.970924e+003;4.011892e+001
1.972853e+003;4.006829e+001
1.974781e+003;4.001341e+001
1.976710e+003;3.994479e+001
1.978638e+003;3.989896e+001
1.980567e+003;3.983743e+001
1.982495e+003;3.977718e+001
1.984424e+003;3.973282e+001
1.986352e+003;3.967478e+001
1.988281e+003;3.961418e+001
1.990209e+003;3.957317e+001
1.992138e+003;3.951279e+001
1.994066e+003;3.946558e+001
1.995995e+003;3.942410e+001
1.997923e+003;3.936697e+001
1.999852e+003;3.932248e+001
2.001780e+003;3.928634e+001
2.003709e+003;3.922767e+001
2.005637e+003;3.919269e+001
2.007566e+003;3.915460e+001
2.009494e+003;3.910640e+001
2.011423e+003;3.907383e+001
2.013351e+003;3.903423e+001
2.015280e+003;3.898239e+001
2.017208e+003;3.895745e+001
2.019137e+003;3.891446e+001
2.021065e+003;3.887029e+001
2.022994e+003;3.884130e+001
2.024922e+003;3.879645e+001
2.026851e+003;3.874902e+001
2.028779e+003;3.871923e+001
2.030708e+003;3.866536e+001
2.032636e+003;3.862452e+001
2.034565e+003;3.858814e+001
2.036493e+003;3.852989e+001
2.038422e+003;3.848022e+001
2.040350e+003;3.843740e+001
2.042279e+003;3.837128e+001
2.044207e+003;3.832477e+001
2.046135e+003;3.826909e+001
2.048064e+003;3.819875e+001
2.049992e+003;3.814429e+001
2.051921e+003;3.808368e+001
2.053850e+003;3.800507e+001
2.055778e+003;3.795237e+001
2.057707e+003;3.788470e+001
2.059635e+003;3.781533e+001
2.061563e+003;3.775961e+001
2.063492e+003;3.768956e+001
2.065420e+003;3.762251e+001
2.067349e+003;3.758164e+001
2.069278e+003;3.751969e+001
2.071206e+003;3.747292e+001
2.073135e+003;3.744167e+001
2.075063e+003;3.740006e+001
2.076991e+003;3.737383e+001
2.078920e+003;3.736399e+001
2.080848e+003;3.733799e+001
2.082777e+003;3.734213e+001
2.084706e+003;3.735025e+001
2.086634e+003;3.734906e+001
2.088563e+003;3.737252e+001
2.090491e+003;3.740326e+001
2.092419e+003;3.742562e+001
2.094348e+003;3.748193e+001
2.096276e+003;3.753091e+001
2.098205e+003;3.758474e+001
2.100134e+003;3.766333e+001
2.102062e+003;3.773168e+001
2.103990e+003;3.779762e+001
2.105919e+003;3.789099e+001
2.107847e+003;3.796077e+001
2.109776e+003;3.803375e+001
2.111704e+003;3.811146e+001
2.113633e+003;3.816727e+001
2.115562e+003;3.822686e+001
2.117490e+003;3.829468e+001
2.119418e+003;3.833253e+001
2.121347e+003;3.838903e+001
2.123275e+003;3.844635e+001
2.125204e+003;3.848967e+001
2.127132e+003;3.855008e+001
2.129061e+003;3.861089e+001
2.130990e+003;3.865256e+001
2.132918e+003;3.871867e+001
2.134846e+003;3.876575e+001
2.136775e+003;3.880069e+001
2.138703e+003;3.885046e+001
2.140632e+003;3.888531e+001
2.142560e+003;3.890825e+001
2.144489e+003;3.895084e+001
2.146417e+003;3.896476e+001
2.148346e+003;3.898262e+001
2.150274e+003;3.901026e+001
2.152203e+003;3.901476e+001
2.154131e+003;3.902041e+001
2.156060e+003;3.904004e+001
2.157988e+003;3.903048e+001
2.159917e+003;3.903529e+001
2.161845e+003;3.903680e+001
2.163774e+003;3.901898e+001
2.165702e+003;3.901632e+001
2.167631e+003;3.901448e+001
2.169559e+003;3.898991e+001
2.171488e+003;3.899021e+001
2.173416e+003;3.897583e+001
2.175345e+003;3.895182e+001
2.177273e+003;3.894506e+001
2.179202e+003;3.892699e+001
2.181130e+003;3.889996e+001
2.183059e+003;3.889725e+001
2.184987e+003;3.886895e+001
2.186916e+003;3.884375e+001
2.188844e+003;3.883290e+001
2.190773e+003;3.880516e+001
2.192701e+003;3.877995e+001
2.194630e+003;3.876958e+001
2.196558e+003;3.873370e+001
2.198487e+003;3.871574e+001
2.200415e+003;3.869767e+001
2.202344e+003;3.866178e+001
2.204272e+003;3.864096e+001
2.206201e+003;3.862416e+001
2.208129e+003;3.858505e+001
2.210058e+003;3.856980e+001
2.211986e+003;3.854207e+001
2.213915e+003;3.850729e+001
2.215843e+003;3.849197e+001
2.217772e+003;3.846547e+001
2.219700e+003;3.842771e+001
2.221629e+003;3.841558e+001
2.223557e+003;3.837949e+001
2.225486e+003;3.834834e+001
2.227414e+003;3.833109e+001
2.229343e+003;3.829449e+001
2.231271e+003;3.826451e+001
2.233200e+003;3.825238e+001
2.235128e+003;3.820892e+001
2.237057e+003;3.818459e+001
2.238985e+003;3.816322e+001
2.240914e+003;3.812400e+001
2.242842e+003;3.810262e+001
2.244771e+003;3.808099e+001
2.246699e+003;3.803558e+001
2.248628e+003;3.802181e+001
2.250556e+003;3.799073e+001
2.252485e+003;3.795112e+001
2.254413e+003;3.793684e+001
2.256342e+003;3.790625e+001
2.258270e+003;3.786657e+001
2.260199e+003;3.785590e+001
2.262127e+003;3.781354e+001
2.264056e+003;3.778277e+001
2.265984e+003;3.777021e+001
2.267913e+003;3.773020e+001
2.269841e+003;3.769996e+001
2.271770e+003;3.768673e+001
2.273698e+003;3.763946e+001
2.275627e+003;3.762009e+001
2.277555e+003;3.759819e+001
2.279484e+003;3.755404e+001
2.281412e+003;3.753742e+001
2.283341e+003;3.751556e+001
2.285269e+003;3.746706e+001
2.287198e+003;3.745592e+001
2.289126e+003;3.742381e+001
2.291055e+003;3.738485e+001
2.292983e+003;3.737176e+001
2.294912e+003;3.733639e+001
2.296840e+003;3.729722e+001
2.298769e+003;3.728953e+001
2.300697e+003;3.724591e+001
2.302626e+003;3.721580e+001
2.304554e+003;3.720211e+001
2.306483e+003;3.715930e+001
2.308411e+003;3.713163e+001
2.310340e+003;3.711793e+001
2.312268e+003;3.706728e+001
2.314197e+003;3.705042e+001
2.316125e+003;3.702866e+001
2.318054e+003;3.698222e+001
2.319982e+003;3.696537e+001
2.321911e+003;3.694167e+001
2.323839e+003;3.689240e+001
2.325768e+003;3.688318e+001
2.327696e+003;3.684912e+001
2.329625e+003;3.680909e+001
2.331553e+003;3.679966e+001
2.333482e+003;3.676284e+001
2.335410e+003;3.672008e+001
2.337339e+003;3.671323e+001
2.339267e+003;3.666890e+001
2.341196e+003;3.664152e+001
2.343124e+003;3.662793e+001
2.345053e+003;3.658120e+001
2.346981e+003;3.655520e+001
2.348910e+003;3.654288e+001
2.350838e+003;3.649113e+001
2.352767e+003;3.647390e+001
2.354695e+003;3.645168e+001
2.356624e+003;3.640622e+001
2.358552e+003;3.639030e+001
2.360481e+003;3.636418e+001
2.362409e+003;3.631555e+001
2.364338e+003;3.630795e+001
2.366266e+003;3.627223e+001
2.368195e+003;3.623095e+001
2.370123e+003;3.621961e+001
2.372052e+003;3.618238e+001
2.373980e+003;3.614420e+001
2.375908e+003;3.613714e+001
2.377837e+003;3.608871e+001
2.379766e+003;3.606165e+001
2.381694e+003;3.605002e+001
2.383623e+003;3.600236e+001
2.385551e+003;3.597502e+001
2.387479e+003;3.596184e+001
2.389408e+003;3.591067e+001
2.391336e+003;3.589613e+001
2.393265e+003;3.587189e+001
2.395194e+003;3.582423e+001
2.397122e+003;3.581027e+001
2.399051e+003;3.578388e+001
2.400979e+003;3.573406e+001
2.402907e+003;3.572743e+001
2.404836e+003;3.568975e+001
2.406764e+003;3.564960e+001
2.408693e+003;3.563924e+001
2.410622e+003;3.559792e+001
2.412550e+003;3.555999e+001
2.414479e+003;3.555535e+001
2.416407e+003;3.550617e+001
2.418335e+003;3.547760e+001
2.420264e+003;3.546209e+001
2.422192e+003;3.541496e+001
2.424121e+003;3.539228e+001
2.426050e+003;3.537665e+001
2.427978e+003;3.532269e+001
2.429906e+003;3.531008e+001
2.431835e+003;3.528366e+001
2.433763e+003;3.523489e+001
2.435692e+003;3.522210e+001
2.437620e+003;3.519397e+001
2.439549e+003;3.514604e+001
2.441478e+003;3.513971e+001
2.443406e+003;3.509727e+001
2.445334e+003;3.505864e+001
2.447263e+003;3.505006e+001
2.449191e+003;3.500720e+001
2.451120e+003;3.497062e+001
2.453048e+003;3.496376e+001
2.454977e+003;3.491159e+001
2.456906e+003;3.488707e+001
2.458834e+003;3.487038e+001
2.460762e+003;3.481971e+001
2.462691e+003;3.479982e+001
2.464619e+003;3.478352e+001
2.466548e+003;3.472769e+001
2.468476e+003;3.471603e+001
2.470405e+003;3.468782e+001
2.472333e+003;3.463977e+001
2.474262e+003;3.462874e+001
2.476190e+003;3.459598e+001
2.478119e+003;3.454691e+001
2.480047e+003;3.454426e+001
2.481976e+003;3.450005e+001
2.483904e+003;3.446036e+001
2.485833e+003;3.445186e+001
2.487761e+003;3.440732e+001
2.489690e+003;3.437270e+001
2.491618e+003;3.436547e+001
2.493547e+003;3.430967e+001
2.495475e+003;3.428661e+001
2.497404e+003;3.427168e+001
2.499332e+003;3.421855e+001
2.501261e+003;3.419822e+001
2.503189e+003;3.418136e+001
2.505118e+003;3.412525e+001
2.507046e+003;3.411561e+001
2.508975e+003;3.408516e+001
2.510903e+003;3.403494e+001
2.512832e+003;3.402645e+001
2.514760e+003;3.399449e+001
2.516689e+003;3.394476e+001
2.518617e+003;3.394011e+001
2.520546e+003;3.389561e+001
2.522474e+003;3.385839e+001
2.524403e+003;3.384972e+001
2.526331e+003;3.380252e+001
2.528260e+003;3.376755e+001
2.530188e+003;3.376097e+001
2.532117e+003;3.370517e+001
2.534045e+003;3.368165e+001
2.535974e+003;3.366484e+001
2.537902e+003;3.361206e+001
2.539831e+003;3.359198e+001
2.541759e+003;3.357230e+001
2.543688e+003;3.351427e+001
2.545616e+003;3.350531e+001
2.547545e+003;3.347594e+001
2.549473e+003;3.342543e+001
2.551402e+003;3.341371e+001
2.553330e+003;3.337965e+001
2.555259e+003;3.333189e+001
2.557187e+003;3.332714e+001
2.559116e+003;3.327995e+001
2.561044e+003;3.324368e+001
2.562973e+003;3.323572e+001
2.564901e+003;3.318812e+001
2.566830e+003;3.315293e+001
2.568758e+003;3.314366e+001
2.570687e+003;3.308932e+001
2.572615e+003;3.306858e+001
2.574544e+003;3.304912e+001
2.576472e+003;3.299636e+001
2.578401e+003;3.297812e+001
2.580329e+003;3.295661e+001
2.582258e+003;3.290100e+001
2.584186e+003;3.289225e+001
2.586115e+003;3.285887e+001
2.588043e+003;3.281177e+001
2.589972e+003;3.280137e+001
2.591900e+003;3.276332e+001
2.593829e+003;3.271790e+001
2.595757e+003;3.271447e+001
2.597686e+003;3.266597e+001
2.599614e+003;3.263157e+001
2.601543e+003;3.261953e+001
2.603471e+003;3.257021e+001
2.605400e+003;3.254120e+001
2.607328e+003;3.252921e+001
2.609257e+003;3.247031e+001
2.611185e+003;3.245381e+001
2.613114e+003;3.243351e+001
2.615042e+003;3.237894e+001
2.616971e+003;3.236216e+001
2.618899e+003;3.233813e+001
2.620828e+003;3.228319e+001
2.622756e+003;3.227729e+001
2.624685e+003;3.223918e+001
2.626613e+003;3.219184e+001
2.628542e+003;3.218506e+001
2.630470e+003;3.214471e+001
2.632399e+003;3.209882e+001
2.634327e+003;3.209623e+001
2.636256e+003;3.204446e+001
2.638184e+003;3.201141e+001
2.640113e+003;3.200171e+001
2.642041e+003;3.194774e+001
2.643970e+003;3.191887e+001
2.645898e+003;3.191104e+001
2.647827e+003;3.185106e+001
2.649755e+003;3.183322e+001
2.651684e+003;3.181171e+001
2.653612e+003;3.175714e+001
2.655541e+003;3.174286e+001
2.657469e+003;3.171724e+001
2.659398e+003;3.165997e+001
2.661326e+003;3.165682e+001
2.663255e+003;3.161986e+001
2.665183e+003;3.157019e+001
2.667112e+003;3.156210e+001
2.669040e+003;3.152172e+001
2.670969e+003;3.147773e+001
2.672897e+003;3.147526e+001
2.674826e+003;3.142176e+001
2.676754e+003;3.138863e+001
2.678683e+003;3.137957e+001
2.680611e+003;3.132791e+001
2.682540e+003;3.129791e+001
2.684468e+003;3.128770e+001
2.686397e+003;3.123025e+001
2.688325e+003;3.121282e+001
2.690254e+003;3.118913e+001
2.692182e+003;3.113552e+001
2.694111e+003;3.112083e+001
2.696039e+003;3.109630e+001
2.697968e+003;3.104190e+001
2.699896e+003;3.103420e+001
2.701825e+003;3.099638e+001
2.703753e+003;3.095269e+001
2.705682e+003;3.094347e+001
2.707610e+003;3.090212e+001
2.709539e+003;3.086031e+001
2.711467e+003;3.085571e+001
2.713396e+003;3.080399e+001
2.715324e+003;3.077243e+001
2.717253e+003;3.075844e+001
2.719181e+003;3.071014e+001
2.721110e+003;3.068514e+001
2.723038e+003;3.066947e+001
2.724967e+003;3.061161e+001
2.726895e+003;3.059781e+001
2.728823e+003;3.057238e+001
2.730752e+003;3.052147e+001
2.732681e+003;3.050786e+001
2.734609e+003;3.047792e+001
2.736538e+003;3.042725e+001
2.738466e+003;3.042254e+001
2.740395e+003;3.037783e+001
2.742323e+003;3.033656e+001
2.744251e+003;3.033066e+001
2.746180e+003;3.028670e+001
2.748109e+003;3.024713e+001
2.750037e+003;3.024047e+001
2.751966e+003;3.018605e+001
2.753894e+003;3.016234e+001
2.755823e+003;3.014847e+001
2.757751e+003;3.009310e+001
2.759679e+003;3.007129e+001
2.761608e+003;3.005686e+001
2.763537e+003;2.999825e+001
2.765465e+003;2.998749e+001
2.767394e+003;2.995982e+001
2.769322e+003;2.990819e+001
2.771250e+003;2.989887e+001
2.773179e+003;2.986601e+001
2.775107e+003;2.981242e+001
2.777036e+003;2.981202e+001
2.778965e+003;2.976927e+001
2.780893e+003;2.972586e+001
2.782822e+003;2.971847e+001
2.784750e+003;2.967327e+001
2.786678e+003;2.963560e+001
2.788607e+003;2.963239e+001
2.790535e+003;2.957567e+001
2.792464e+003;2.954893e+001
2.794393e+003;2.953797e+001
2.796321e+003;2.948464e+001
2.798250e+003;2.946017e+001
2.800178e+003;2.944545e+001
2.802106e+003;2.938907e+001
2.804035e+003;2.937827e+001
2.805963e+003;2.935002e+001
2.807892e+003;2.929792e+001
2.809821e+003;2.928762e+001
2.811749e+003;2.925857e+001
2.813677e+003;2.920644e+001
2.815606e+003;2.920069e+001
2.817534e+003;2.915926e+001
2.819463e+003;2.912119e+001
2.821391e+003;2.911129e+001
2.823320e+003;2.906508e+001
2.825249e+003;2.902738e+001
2.827177e+003;2.902142e+001
2.829105e+003;2.896992e+001
2.831034e+003;2.894418e+001
2.832962e+003;2.892611e+001
2.834891e+003;2.887747e+001
2.836819e+003;2.885747e+001
2.838748e+003;2.883628e+001
2.840677e+003;2.877983e+001
2.842605e+003;2.877043e+001
2.844533e+003;2.874038e+001
2.846462e+003;2.869380e+001
2.848390e+003;2.868020e+001
2.850319e+003;2.864407e+001
2.852247e+003;2.860104e+001
2.854176e+003;2.859634e+001
2.856104e+003;2.854613e+001
2.858033e+003;2.851199e+001
2.859961e+003;2.850424e+001
2.861890e+003;2.845726e+001
2.863818e+003;2.842586e+001
2.865747e+003;2.841569e+001
2.867675e+003;2.836040e+001
2.869604e+003;2.834398e+001
2.871532e+003;2.832383e+001
2.873461e+003;2.826894e+001
2.875389e+003;2.825281e+001
2.877318e+003;2.823265e+001
2.879246e+003;2.817691e+001
2.881175e+003;2.817015e+001
2.883103e+003;2.813610e+001
2.885032e+003;2.808967e+001
2.886960e+003;2.808336e+001
2.888889e+003;2.804533e+001
2.890817e+003;2.799792e+001
2.892746e+003;2.799797e+001
2.894674e+003;2.794985e+001
2.896603e+003;2.791304e+001
2.898531e+003;2.790357e+001
2.900460e+003;2.785604e+001
2.902388e+003;2.782577e+001
2.904317e+003;2.781786e+001
2.906245e+003;2.775926e+001
2.908174e+003;2.773961e+001
2.910102e+003;2.772447e+001
2.912031e+003;2.767221e+001
2.913959e+003;2.765192e+001
2.915888e+003;2.763109e+001
2.917816e+003;2.757723e+001
2.919745e+003;2.756927e+001
2.921673e+003;2.753482e+001
2.923602e+003;2.748666e+001
2.925530e+003;2.747734e+001
2.927459e+003;2.744483e+001
2.929387e+003;2.739986e+001
2.931316e+003;2.739313e+001
2.933244e+003;2.734858e+001
2.935173e+003;2.731824e+001
2.937101e+003;2.730634e+001
2.939030e+003;2.725825e+001
2.940958e+003;2.722782e+001
2.942887e+003;2.721863e+001
2.944815e+003;2.716685e+001
2.946744e+003;2.714662e+001
2.948672e+003;2.712239e+001
2.950601e+003;2.707749e+001
2.952529e+003;2.706248e+001
2.954458e+003;2.703384e+001
2.956386e+003;2.698210e+001
2.958315e+003;2.697701e+001
2.960243e+003;2.694044e+001
2.962172e+003;2.689896e+001
2.964100e+003;2.688811e+001
2.966029e+003;2.684874e+001
2.967957e+003;2.681331e+001
2.969886e+003;2.680829e+001
2.971814e+003;2.675539e+001
2.973743e+003;2.672965e+001
2.975671e+003;2.672029e+001
2.977600e+003;2.667135e+001
2.979528e+003;2.664552e+001
2.981457e+003;2.663070e+001
2.983385e+003;2.657662e+001
2.985314e+003;2.656757e+001
2.987242e+003;2.654188e+001
2.989171e+003;2.648912e+001
2.991099e+003;2.648064e+001
2.993028e+003;2.645612e+001
2.994956e+003;2.640323e+001
2.996885e+003;2.639910e+001
2.998813e+003;2.636110e+001
3.000742e+003;2.632251e+001
3.002670e+003;2.631745e+001
3.004599e+003;2.627327e+001
3.006527e+003;2.623249e+001
3.008456e+003;2.623385e+001
3.010384e+003;2.618518e+001
3.012313e+003;2.615614e+001
3.014241e+003;2.614414e+001
3.016170e+003;2.609693e+001
3.018098e+003;2.607464e+001
3.020027e+003;2.606230e+001
3.021955e+003;2.600561e+001
3.023884e+003;2.599224e+001
3.025812e+003;2.597271e+001
3.027741e+003;2.592580e+001
3.029669e+003;2.590939e+001
3.031598e+003;2.588382e+001
3.033526e+003;2.583877e+001
3.035455e+003;2.583338e+001
3.037383e+003;2.579340e+001
3.039312e+003;2.575429e+001
3.041240e+003;2.574619e+001
3.043169e+003;2.571013e+001
3.045097e+003;2.567328e+001
3.047026e+003;2.566329e+001
3.048954e+003;2.561742e+001
3.050883e+003;2.559713e+001
3.052811e+003;2.557898e+001
3.054740e+003;2.553118e+001
3.056668e+003;2.551106e+001
3.058597e+003;2.549617e+001
3.060525e+003;2.544716e+001
3.062454e+003;2.543412e+001
3.064382e+003;2.540307e+001
3.066311e+003;2.536333e+001
3.068239e+003;2.535431e+001
3.070167e+003;2.532013e+001
3.072096e+003;2.527587e+001
3.074025e+003;2.527363e+001
3.075953e+003;2.523281e+001
3.077882e+003;2.520050e+001
3.079810e+003;2.518945e+001
3.081739e+003;2.514621e+001
3.083667e+003;2.511977e+001
3.085595e+003;2.511247e+001
3.087524e+003;2.505623e+001
3.089453e+003;2.503749e+001
3.091381e+003;2.502516e+001
3.093310e+003;2.497795e+001
3.095238e+003;2.495937e+001
3.097167e+003;2.494020e+001
3.099095e+003;2.488987e+001
3.101023e+003;2.488535e+001
3.102952e+003;2.485445e+001
3.104881e+003;2.480744e+001
3.106809e+003;2.480105e+001
3.108738e+003;2.477346e+001
3.110666e+003;2.472797e+001
3.112594e+003;2.472381e+001
3.114523e+003;2.468386e+001
3.116451e+003;2.465331e+001
3.118380e+003;2.464516e+001
3.120309e+003;2.460218e+001
3.122237e+003;2.456808e+001
3.124166e+003;2.456290e+001
3.126094e+003;2.451709e+001
3.128022e+003;2.449454e+001
3.129951e+003;2.447619e+001
3.131879e+003;2.443515e+001
3.133808e+003;2.441737e+001
3.135737e+003;2.439694e+001
3.137665e+003;2.434832e+001
3.139594e+003;2.433916e+001
3.141522e+003;2.431175e+001
3.143450e+003;2.427361e+001
3.145379e+003;2.425839e+001
3.147307e+003;2.422731e+001
3.149236e+003;2.419297e+001
3.151165e+003;2.418652e+001
3.153093e+003;2.414337e+001
3.155021e+003;2.411548e+001
3.156950e+003;2.410363e+001
3.158878e+003;2.406596e+001
3.160807e+003;2.404002e+001
3.162735e+003;2.402351e+001
3.164664e+003;2.397699e+001
3.166593e+003;2.396715e+001
3.168521e+003;2.394398e+001
3.170449e+003;2.389928e+001
3.172378e+003;2.388591e+001
3.174306e+003;2.386401e+001
3.176235e+003;2.381990e+001
3.178163e+003;2.381327e+001
3.180092e+003;2.377649e+001
3.182021e+003;2.374332e+001
3.183949e+003;2.373775e+001
3.185877e+003;2.369985e+001
3.187806e+003;2.366276e+001
3.189734e+003;2.366108e+001
3.191663e+003;2.361926e+001
3.193591e+003;2.359473e+001
3.195520e+003;2.358065e+001
3.197448e+003;2.353636e+001
3.199377e+003;2.351602e+001
3.201305e+003;2.350706e+001
3.203234e+003;2.345526e+001
3.205162e+003;2.344116e+001
3.207091e+003;2.342410e+001
3.209019e+003;2.338291e+001
3.210948e+003;2.336763e+001
3.212876e+003;2.334528e+001
3.214805e+003;2.330260e+001
3.216733e+003;2.329841e+001
3.218662e+003;2.326555e+001
3.220590e+003;2.322807e+001
3.222519e+003;2.321885e+001
3.224447e+003;2.319069e+001
3.226376e+003;2.315687e+001
3.228304e+003;2.314747e+001
3.230233e+003;2.310677e+001
3.232161e+003;2.308600e+001
3.234090e+003;2.307194e+001
3.236018e+003;2.303290e+001
3.237947e+003;2.300830e+001
3.239875e+003;2.299537e+001
3.241804e+003;2.295583e+001
3.243732e+003;2.294134e+001
3.245661e+003;2.291443e+001
3.247589e+003;2.288058e+001
3.249518e+003;2.286756e+001
3.251446e+003;2.284065e+001
3.253375e+003;2.280250e+001
3.255303e+003;2.279424e+001
3.257232e+003;2.276029e+001
3.259160e+003;2.273437e+001
3.261089e+003;2.271986e+001
3.263017e+003;2.268407e+001
3.264946e+003;2.265962e+001
3.266874e+003;2.265098e+001
3.268803e+003;2.260684e+001
3.270731e+003;2.259001e+001
3.272660e+003;2.257402e+001
3.274588e+003;2.253659e+001
3.276517e+003;2.251874e+001
3.278445e+003;2.249902e+001
3.280374e+003;2.245617e+001
3.282302e+003;2.245110e+001
3.284231e+003;2.242399e+001
3.286159e+003;2.238572e+001
3.288088e+003;2.237613e+001
3.290016e+003;2.235163e+001
3.291945e+003;2.231417e+001
3.293873e+003;2.230835e+001
3.295802e+003;2.227083e+001
3.297730e+003;2.224419e+001
3.299659e+003;2.223696e+001
3.301587e+003;2.220206e+001
3.303516e+003;2.217179e+001
3.305444e+003;2.216447e+001
3.307373e+003;2.212532e+001
3.309301e+003;2.210670e+001
3.311230e+003;2.208822e+001
3.313158e+003;2.205229e+001
3.315087e+003;2.203573e+001
3.317015e+003;2.202110e+001
3.318944e+003;2.197938e+001
3.320872e+003;2.196590e+001
3.322801e+003;2.194309e+001
3.324729e+003;2.191395e+001
3.326658e+003;2.189738e+001
3.328586e+003;2.187101e+001
3.330515e+003;2.183961e+001
3.332443e+003;2.183162e+001
3.334372e+003;2.179810e+001
3.336300e+003;2.177436e+001
3.338229e+003;2.175931e+001
3.340157e+003;2.173001e+001
3.342086e+003;2.170575e+001
3.344014e+003;2.168838e+001
3.345943e+003;2.165147e+001
3.347871e+003;2.164132e+001
3.349800e+003;2.161961e+001
3.351728e+003;2.158609e+001
3.353657e+003;2.156909e+001
3.355585e+003;2.154896e+001
3.357514e+003;2.151594e+001
3.359442e+003;2.150668e+001
3.361371e+003;2.147304e+001
3.363299e+003;2.144695e+001
3.365228e+003;2.143855e+001
3.367156e+003;2.140915e+001
3.369085e+003;2.137895e+001
3.371013e+003;2.137103e+001
3.372942e+003;2.133554e+001
3.374870e+003;2.131768e+001
3.376799e+003;2.130137e+001
3.378727e+003;2.126590e+001
3.380656e+003;2.124807e+001
3.382584e+003;2.123781e+001
3.384513e+003;2.119579e+001
3.386441e+003;2.118087e+001
3.388370e+003;2.116291e+001
3.390298e+003;2.113392e+001
3.392227e+003;2.111801e+001
3.394155e+003;2.109503e+001
3.396083e+003;2.105990e+001
3.398012e+003;2.105476e+001
3.399941e+003;2.102850e+001
3.401869e+003;2.099794e+001
3.403798e+003;2.098288e+001
3.405726e+003;2.096211e+001
3.407655e+003;2.093461e+001
3.409583e+003;2.092033e+001
3.411511e+003;2.088665e+001
3.413440e+003;2.086887e+001
3.415369e+003;2.085327e+001
3.417297e+003;2.082404e+001
3.419226e+003;2.079936e+001
3.421154e+003;2.078617e+001
3.423083e+003;2.075711e+001
3.425011e+003;2.074167e+001
3.426939e+003;2.071493e+001
3.428868e+003;2.069113e+001
3.430797e+003;2.067687e+001
3.432725e+003;2.065513e+001
3.434654e+003;2.062385e+001
3.436582e+003;2.061087e+001
3.438510e+003;2.058398e+001
3.440439e+003;2.056569e+001
3.442367e+003;2.054680e+001
3.444296e+003;2.051829e+001
3.446225e+003;2.049806e+001
3.448153e+003;2.048775e+001
3.450082e+003;2.045287e+001
3.452010e+003;2.043545e+001
3.453938e+003;2.041620e+001
3.455867e+003;2.039275e+001
3.457795e+003;2.037641e+001
3.459724e+003;2.035535e+001
3.461653e+003;2.032304e+001
3.463581e+003;2.031759e+001
3.465510e+003;2.029407e+001
3.467438e+003;2.026398e+001
3.469366e+003;2.024734e+001
3.471295e+003;2.022897e+001
3.473223e+003;2.020251e+001
3.475152e+003;2.019011e+001
3.477081e+003;2.015911e+001
3.479009e+003;2.014167e+001
3.480938e+003;2.013076e+001
3.482866e+003;2.010430e+001
3.484794e+003;2.007637e+001
3.486723e+003;2.006605e+001
3.488651e+003;2.004134e+001
3.490580e+003;2.002569e+001
3.492509e+003;2.000278e+001
3.494437e+003;1.997744e+001
3.496365e+003;1.996207e+001
3.498294e+003;1.994807e+001
3.500222e+003;1.991623e+001
3.502151e+003;1.990045e+001
3.504079e+003;1.988159e+001
3.506008e+003;1.986367e+001
3.507937e+003;1.984142e+001
3.509865e+003;1.981850e+001
3.511793e+003;1.979733e+001
3.513722e+003;1.978766e+001
3.515650e+003;1.976123e+001
3.517579e+003;1.974014e+001
3.519507e+003;1.971983e+001
3.521436e+003;1.970337e+001
3.523365e+003;1.968441e+001
3.525293e+003;1.966372e+001
3.527221e+003;1.963664e+001
3.529150e+003;1.962598e+001
3.531078e+003;1.960436e+001
3.533007e+003;1.958180e+001
3.534935e+003;1.956167e+001
3.536864e+003;1.954413e+001
3.538792e+003;1.952332e+001
3.540721e+003;1.950958e+001
3.542649e+003;1.948004e+001
3.544578e+003;1.946420e+001
3.546506e+003;1.945097e+001
3.548435e+003;1.942899e+001
3.550363e+003;1.940420e+001
3.552292e+003;1.939016e+001
3.554220e+003;1.936781e+001
3.556149e+003;1.935402e+001
3.558077e+003;1.932993e+001
3.560006e+003;1.930695e+001
3.561934e+003;1.929134e+001
3.563863e+003;1.927831e+001
3.565791e+003;1.924881e+001
3.567720e+003;1.923115e+001
3.569648e+003;1.921415e+001
3.571577e+003;1.919956e+001
3.573505e+003;1.917893e+001
3.575434e+003;1.915777e+001
3.577362e+003;1.913445e+001
3.579291e+003;1.912506e+001
3.581219e+003;1.910502e+001
3.583148e+003;1.908350e+001
3.585076e+003;1.906037e+001
3.587005e+003;1.904766e+001
3.588933e+003;1.902918e+001
3.590862e+003;1.900948e+001
3.592790e+003;1.898489e+001
3.594719e+003;1.897186e+001
3.596647e+003;1.895422e+001
3.598576e+003;1.893788e+001
3.600504e+003;1.891285e+001
3.602433e+003;1.889614e+001
3.604361e+003;1.888078e+001
3.606290e+003;1.886494e+001
3.608218e+003;1.883738e+001
3.610147e+003;1.882366e+001
3.612075e+003;1.880725e+001
3.614004e+003;1.879061e+001
3.615932e+003;1.876808e+001
3.617861e+003;1.874854e+001
3.619789e+003;1.873126e+001
3.621718e+003;1.872255e+001
3.623646e+003;1.869644e+001
3.625575e+003;1.867625e+001
3.627503e+003;1.865934e+001
3.629432e+003;1.864621e+001
3.631360e+003;1.862652e+001
3.633289e+003;1.860921e+001
3.635217e+003;1.858719e+001
3.637146e+003;1.857791e+001
3.639074e+003;1.855775e+001
3.641003e+003;1.853489e+001
3.642931e+003;1.851480e+001
3.644860e+003;1.850317e+001
3.646788e+003;1.848319e+001
3.648717e+003;1.846505e+001
3.650645e+003;1.843976e+001
3.652574e+003;1.842914e+001
3.654502e+003;1.841582e+001
3.656431e+003;1.839467e+001
3.658359e+003;1.837090e+001
3.660288e+003;1.836052e+001
3.662216e+003;1.834247e+001
3.664145e+003;1.832981e+001
3.666073e+003;1.830507e+001
3.668002e+003;1.828503e+001
3.669930e+003;1.827246e+001
3.671859e+003;1.825848e+001
3.673787e+003;1.823185e+001
3.675716e+003;1.821965e+001
3.677644e+003;1.820319e+001
3.679573e+003;1.819063e+001
3.681501e+003;1.817249e+001
3.683430e+003;1.814945e+001
3.685358e+003;1.813345e+001
3.687287e+003;1.812901e+001
3.689215e+003;1.810121e+001
3.691144e+003;1.808362e+001
3.693072e+003;1.806955e+001
3.695001e+003;1.805444e+001
3.696929e+003;1.803888e+001
3.698858e+003;1.802195e+001
3.700786e+003;1.799667e+001
3.702715e+003;1.799307e+001
3.704643e+003;1.797390e+001
3.706572e+003;1.794980e+001
3.708500e+003;1.793475e+001
3.710429e+003;1.792229e+001
3.712357e+003;1.790326e+001
3.714286e+003;1.789300e+001
3.716214e+003;1.786320e+001
3.718143e+003;1.785149e+001
3.720071e+003;1.784508e+001
3.722000e+003;1.782111e+001
3.723928e+003;1.779794e+001
3.725857e+003;1.778956e+001
3.727785e+003;1.776559e+001
3.729714e+003;1.775461e+001
3.731642e+003;1.773174e+001
3.733571e+003;1.770694e+001
3.735499e+003;1.769950e+001
3.737427e+003;1.769067e+001
3.739356e+003;1.766417e+001
3.741285e+003;1.765962e+001
3.743213e+003;1.764400e+001
3.745142e+003;1.763152e+001
3.747070e+003;1.762332e+001
3.748999e+003;1.759891e+001
3.750927e+003;1.758086e+001
3.752855e+003;1.758666e+001
3.754784e+003;1.756064e+001
3.756713e+003;1.754259e+001
3.758641e+003;1.753310e+001
3.760570e+003;1.751614e+001
3.762498e+003;1.750418e+001
3.764427e+003;1.749258e+001
3.766355e+003;1.746181e+001
3.768283e+003;1.746078e+001
3.770212e+003;1.744860e+001
3.772141e+003;1.742246e+001
3.774069e+003;1.741055e+001
3.775998e+003;1.740051e+001
3.777926e+003;1.737983e+001
3.779854e+003;1.737453e+001
3.781783e+003;1.734617e+001
3.783711e+003;1.733009e+001
3.785640e+003;1.732851e+001
3.787569e+003;1.730774e+001
3.789497e+003;1.728561e+001
3.791426e+003;1.728155e+001
3.793354e+003;1.725720e+001
3.795282e+003;1.725104e+001
3.797211e+003;1.723623e+001
3.799139e+003;1.720663e+001
3.801068e+003;1.720053e+001
3.802997e+003;1.719719e+001
3.804925e+003;1.716508e+001
3.806854e+003;1.715861e+001
3.808782e+003;1.714240e+001
3.810710e+003;1.712523e+001
3.812639e+003;1.712202e+001
3.814567e+003;1.709629e+001
3.816496e+003;1.707141e+001
3.818425e+003;1.708208e+001
3.820353e+003;1.705605e+001
3.822281e+003;1.703461e+001
3.824210e+003;1.703029e+001
3.826138e+003;1.701043e+001
3.828067e+003;1.699872e+001
3.829995e+003;1.699470e+001
3.831924e+003;1.695737e+001
3.833853e+003;1.695584e+001
3.835781e+003;1.695255e+001
3.837709e+003;1.692152e+001
3.839638e+003;1.690958e+001
3.841566e+003;1.690305e+001
3.843495e+003;1.687849e+001
3.845423e+003;1.688107e+001
3.847352e+003;1.685555e+001
3.849281e+003;1.683111e+001
3.851209e+003;1.683574e+001
3.853137e+003;1.681809e+001
3.855066e+003;1.678989e+001
3.856994e+003;1.679082e+001
3.858923e+003;1.676968e+001
3.860851e+003;1.676207e+001
3.862780e+003;1.675429e+001
3.864708e+003;1.672346e+001
3.866637e+003;1.671611e+001
3.868565e+003;1.671800e+001
3.870494e+003;1.668250e+001
3.872422e+003;1.667714e+001
3.874351e+003;1.666550e+001
3.876279e+003;1.664606e+001
3.878208e+003;1.664546e+001
3.880136e+003;1.662371e+001
3.882065e+003;1.659441e+001
3.883993e+003;1.660849e+001
3.885922e+003;1.658662e+001
3.887850e+003;1.656400e+001
3.889779e+003;1.656123e+001
3.891707e+003;1.653872e+001
3.893636e+003;1.652795e+001
3.895564e+003;1.653249e+001
3.897493e+003;1.649223e+001
3.899421e+003;1.648846e+001
3.901350e+003;1.649258e+001
3.903278e+003;1.645909e+001
3.905207e+003;1.644816e+001
3.907135e+003;1.644540e+001
3.909064e+003;1.641435e+001
3.910992e+003;1.642317e+001
3.912921e+003;1.640388e+001
3.914849e+003;1.637066e+001
3.916778e+003;1.638045e+001
3.918706e+003;1.636832e+001
3.920635e+003;1.633419e+001
3.922563e+003;1.634128e+001
3.924492e+003;1.631788e+001
3.926420e+003;1.630498e+001
3.928349e+003;1.630869e+001
3.930277e+003;1.627525e+001
3.932206e+003;1.625890e+001
3.934134e+003;1.627268e+001
3.936063e+003;1.623811e+001
3.937991e+003;1.622891e+001
3.939920e+003;1.622437e+001
3.941848e+003;1.619956e+001
3.943777e+003;1.619991e+001
3.945705e+003;1.619014e+001
3.947634e+003;1.615274e+001
3.949562e+003;1.616455e+001
3.951491e+003;1.615228e+001
3.953419e+003;1.612541e+001
3.955348e+003;1.612469e+001
3.957276e+003;1.610634e+001
3.959205e+003;1.608826e+001
3.961133e+003;1.609839e+001
3.963062e+003;1.606102e+001
3.964990e+003;1.604947e+001
3.966919e+003;1.605948e+001
3.968847e+003;1.602927e+001
3.970776e+003;1.601648e+001
3.972704e+003;1.601731e+001
3.974633e+003;1.598509e+001
3.976561e+003;1.599561e+001
3.978490e+003;1.598256e+001
3.980418e+003;1.594353e+001
3.982347e+003;1.595646e+001
3.984275e+003;1.595206e+001
3.986204e+003;1.591123e+001
3.988132e+003;1.592083e+001
3.990061e+003;1.589908e+001
3.991989e+003;1.587966e+001
3.993918e+003;1.589301e+001
3.995846e+003;1.586087e+001
3.997775e+003;1.583665e+001
3.999703e+003;1.586074e+001
