3.991989e+002;1.201082e+000
4.011274e+002;1.269968e+000
4.030559e+002;1.353858e+000
4.049844e+002;1.433143e+000
4.069129e+002;1.518111e+000
4.088414e+002;1.602296e+000
4.107699e+002;1.693847e+000
4.126984e+002;1.790781e+000
4.146269e+002;1.880527e+000
4.165554e+002;1.960252e+000
4.184839e+002;2.058058e+000
4.204124e+002;2.163934e+000
4.223409e+002;2.247835e+000
4.242694e+002;2.332996e+000
4.261979e+002;2.421988e+000
4.281264e+002;2.505635e+000
4.300549e+002;2.589652e+000
4.319834e+002;2.679754e+000
4.339119e+002;2.759267e+000
4.358404e+002;2.834558e+000
4.377689e+002;2.913336e+000
4.396974e+002;2.993051e+000
4.416259e+002;3.060479e+000
4.435544e+002;3.122460e+000
4.454829e+002;3.181797e+000
4.474114e+002;3.240008e+000
4.493399e+002;3.293846e+000
4.512684e+002;3.337029e+000
4.531969e+002;3.383808e+000
4.551254e+002;3.431710e+000
4.570539e+002;3.469885e+000
4.589824e+002;3.509357e+000
4.609109e+002;3.554010e+000
4.628394e+002;3.593307e+000
4.647679e+002;3.633182e+000
4.666964e+002;3.678010e+000
4.686248e+002;3.722774e+000
4.705533e+002;3.773699e+000
4.724818e+002;3.829237e+000
4.744103e+002;3.884222e+000
4.763388e+002;3.936603e+000
4.782673e+002;3.993353e+000
4.801958e+002;4.046844e+000
4.821243e+002;4.093913e+000
4.840528e+002;4.149483e+000
4.859813e+002;4.206576e+000
4.879098e+002;4.263625e+000
4.898383e+002;4.328688e+000
4.917668e+002;4.390837e+000
4.936953e+002;4.444534e+000
4.956238e+002;4.500222e+000
4.975523e+002;4.555311e+000
4.994808e+002;4.604059e+000
5.014093e+002;4.645543e+000
5.033378e+002;4.687707e+000
5.052663e+002;4.725644e+000
5.071948e+002;4.752775e+000
5.091233e+002;4.763144e+000
5.110518e+002;4.760570e+000
5.129803e+002;4.758774e+000
5.149088e+002;4.805380e+000
5.168373e+002;4.897069e+000
5.187657e+002;4.982661e+000
5.206943e+002;5.046381e+000
5.226227e+002;5.093608e+000
5.245513e+002;5.137316e+000
5.264797e+002;5.181685e+000
5.284083e+002;5.225334e+000
5.303367e+002;5.265439e+000
5.322653e+002;5.307548e+000
5.341937e+002;5.351060e+000
5.361223e+002;5.386163e+000
5.380507e+002;5.421494e+000
5.399792e+002;5.453685e+000
5.419077e+002;5.480302e+000
5.438362e+002;5.508821e+000
5.457647e+002;5.539525e+000
5.476932e+002;5.568213e+000
5.496217e+002;5.598680e+000
5.515502e+002;5.627535e+000
5.534787e+002;5.650013e+000
5.554072e+002;5.678052e+000
5.573357e+002;5.711483e+000
5.592642e+002;5.742938e+000
5.611927e+002;5.774076e+000
5.631212e+002;5.808136e+000
5.650497e+002;5.843090e+000
5.669782e+002;5.890774e+000
5.689067e+002;5.970233e+000
5.708352e+002;6.078337e+000
5.727637e+002;6.180569e+000
5.746922e+002;6.258372e+000
5.766207e+002;6.322014e+000
5.785492e+002;6.377562e+000
5.804777e+002;6.424879e+000
5.824062e+002;6.461907e+000
5.843347e+002;6.486760e+000
5.862632e+002;6.497140e+000
5.881917e+002;6.491711e+000
5.901202e+002;6.465445e+000
5.920486e+002;6.410206e+000
5.939772e+002;6.329754e+000
5.959056e+002;6.228178e+000
5.978342e+002;6.089879e+000
5.997626e+002;5.887125e+000
6.016912e+002;5.644849e+000
6.036196e+002;5.465836e+000
6.055482e+002;5.336840e+000
6.074766e+002;5.212387e+000
6.094052e+002;5.124355e+000
6.113336e+002;5.168275e+000
6.132621e+002;5.320298e+000
6.151906e+002;5.433909e+000
6.171191e+002;5.500983e+000
6.190476e+002;5.560177e+000
6.209761e+002;5.659341e+000
6.229046e+002;5.933711e+000
6.248331e+002;6.475947e+000
6.267616e+002;7.182403e+000
6.286901e+002;7.905573e+000
6.306186e+002;8.440451e+000
6.325471e+002;8.723275e+000
6.344756e+002;8.858384e+000
6.364041e+002;8.947197e+000
6.383326e+002;9.028257e+000
6.402611e+002;9.107119e+000
6.421896e+002;9.186534e+000
6.441181e+002;9.261635e+000
6.460466e+002;9.328223e+000
6.479751e+002;9.389583e+000
6.499036e+002;9.457333e+000
6.518321e+002;9.521608e+000
6.537606e+002;9.573004e+000
6.556891e+002;9.618343e+000
6.576176e+002;9.664066e+000
6.595461e+002;9.719369e+000
6.614745e+002;9.781175e+000
6.634031e+002;9.842999e+000
6.653315e+002;9.899923e+000
6.672601e+002;9.943481e+000
6.691885e+002;9.998251e+000
6.711171e+002;1.005808e+001
6.730455e+002;1.010917e+001
6.749741e+002;1.015976e+001
6.769025e+002;1.021006e+001
6.788311e+002;1.026159e+001
6.807595e+002;1.030689e+001
6.826880e+002;1.034291e+001
6.846165e+002;1.037681e+001
6.865450e+002;1.041433e+001
6.884735e+002;1.045821e+001
6.904020e+002;1.050862e+001
6.923305e+002;1.056497e+001
6.942590e+002;1.062209e+001
6.961875e+002;1.068434e+001
6.981160e+002;1.074666e+001
7.000445e+002;1.079562e+001
7.019730e+002;1.082515e+001
7.039015e+002;1.084152e+001
7.058300e+002;1.084400e+001
7.077585e+002;1.082674e+001
7.096870e+002;1.078528e+001
7.116155e+002;1.071297e+001
7.135440e+002;1.060892e+001
7.154725e+002;1.049816e+001
7.174010e+002;1.041049e+001
7.193295e+002;1.034767e+001
7.212580e+002;1.028947e+001
7.231865e+002;1.023047e+001
7.251150e+002;1.017778e+001
7.270435e+002;1.012963e+001
7.289720e+002;1.008516e+001
7.309005e+002;1.004362e+001
7.328290e+002;1.000471e+001
7.347574e+002;9.966246e+000
7.366860e+002;9.935882e+000
7.386144e+002;9.927046e+000
7.405430e+002;9.974268e+000
7.424714e+002;1.007205e+001
7.444000e+002;1.017236e+001
7.463284e+002;1.025415e+001
7.482570e+002;1.032258e+001
7.501854e+002;1.038016e+001
7.521140e+002;1.043169e+001
7.540424e+002;1.048390e+001
7.559709e+002;1.053478e+001
7.578994e+002;1.058284e+001
7.598279e+002;1.062721e+001
7.617564e+002;1.066346e+001
7.636849e+002;1.069699e+001
7.656134e+002;1.073201e+001
7.675419e+002;1.076536e+001
7.694704e+002;1.079692e+001
7.713989e+002;1.082771e+001
7.733274e+002;1.085297e+001
7.752559e+002;1.087270e+001
7.771844e+002;1.089263e+001
7.791129e+002;1.091356e+001
7.810414e+002;1.093320e+001
7.829699e+002;1.095113e+001
7.848984e+002;1.096420e+001
7.868269e+002;1.097001e+001
7.887554e+002;1.097341e+001
7.906839e+002;1.098099e+001
7.926124e+002;1.099554e+001
7.945409e+002;1.102820e+001
7.964694e+002;1.108810e+001
7.983979e+002;1.117191e+001
8.003264e+002;1.122181e+001
8.022549e+002;1.121021e+001
8.041833e+002;1.118145e+001
8.061119e+002;1.115629e+001
8.080403e+002;1.114292e+001
8.099689e+002;1.114002e+001
8.118973e+002;1.113983e+001
8.138259e+002;1.113651e+001
8.157543e+002;1.113843e+001
8.176829e+002;1.115707e+001
8.196113e+002;1.119804e+001
8.215399e+002;1.125492e+001
8.234683e+002;1.132240e+001
8.253969e+002;1.139931e+001
8.273253e+002;1.148976e+001
8.292538e+002;1.158981e+001
8.311823e+002;1.168775e+001
8.331108e+002;1.177195e+001
8.350393e+002;1.183633e+001
8.369678e+002;1.187975e+001
8.388963e+002;1.190544e+001
8.408248e+002;1.191697e+001
8.427533e+002;1.192118e+001
8.446818e+002;1.192430e+001
8.466103e+002;1.193424e+001
8.485388e+002;1.194610e+001
8.504673e+002;1.194927e+001
8.523958e+002;1.194415e+001
8.543243e+002;1.193503e+001
8.562528e+002;1.192245e+001
8.581813e+002;1.190622e+001
8.601098e+002;1.188113e+001
8.620383e+002;1.185025e+001
8.639668e+002;1.183127e+001
8.658953e+002;1.183179e+001
8.678238e+002;1.184356e+001
8.697523e+002;1.186061e+001
8.716808e+002;1.188199e+001
8.736093e+002;1.190511e+001
8.755378e+002;1.192611e+001
8.774662e+002;1.194575e+001
8.793948e+002;1.196799e+001
8.813232e+002;1.199468e+001
8.832518e+002;1.202565e+001
8.851802e+002;1.205860e+001
8.871088e+002;1.209227e+001
8.890372e+002;1.212503e+001
8.909658e+002;1.215782e+001
8.928942e+002;1.219486e+001
8.948227e+002;1.223816e+001
8.967512e+002;1.228852e+001
8.986797e+002;1.234144e+001
9.006082e+002;1.239591e+001
9.025367e+002;1.245195e+001
9.044652e+002;1.251165e+001
9.063937e+002;1.257724e+001
9.083222e+002;1.265069e+001
9.102507e+002;1.273385e+001
9.121792e+002;1.282573e+001
9.141077e+002;1.291959e+001
9.160362e+002;1.300601e+001
9.179647e+002;1.308592e+001
9.198932e+002;1.316540e+001
9.218217e+002;1.324527e+001
9.237502e+002;1.332732e+001
9.256786e+002;1.340886e+001
9.276072e+002;1.348683e+001
9.295356e+002;1.356151e+001
9.314642e+002;1.363418e+001
9.333926e+002;1.370654e+001
9.353212e+002;1.377884e+001
9.372496e+002;1.384632e+001
9.391782e+002;1.390551e+001
9.411066e+002;1.395969e+001
9.430352e+002;1.400771e+001
9.449636e+002;1.404859e+001
9.468922e+002;1.408672e+001
9.488206e+002;1.412361e+001
9.507491e+002;1.415973e+001
9.526776e+002;1.419061e+001
9.546061e+002;1.421765e+001
9.565346e+002;1.424500e+001
9.584631e+002;1.427333e+001
9.603916e+002;1.430545e+001
9.623201e+002;1.434440e+001
9.642486e+002;1.439032e+001
9.661771e+002;1.444149e+001
9.681056e+002;1.449917e+001
9.700341e+002;1.456088e+001
9.719626e+002;1.462322e+001
9.738911e+002;1.468862e+001
9.758196e+002;1.475854e+001
9.777481e+002;1.482877e+001
9.796766e+002;1.489365e+001
9.816051e+002;1.495420e+001
9.835336e+002;1.501475e+001
9.854621e+002;1.507739e+001
9.873906e+002;1.513891e+001
9.893191e+002;1.519778e+001
9.912476e+002;1.525319e+001
9.931761e+002;1.530677e+001
9.951046e+002;1.536230e+001
9.970331e+002;1.542141e+001
9.989615e+002;1.547881e+001
1.000890e+003;1.552982e+001
1.002819e+003;1.557066e+001
1.004747e+003;1.559933e+001
1.006676e+003;1.561786e+001
1.008604e+003;1.562979e+001
1.010533e+003;1.563701e+001
1.012461e+003;1.564082e+001
1.014390e+003;1.564277e+001
1.016318e+003;1.564427e+001
1.018247e+003;1.564854e+001
1.020175e+003;1.565951e+001
1.022104e+003;1.567791e+001
1.024032e+003;1.570086e+001
1.025961e+003;1.572389e+001
1.027889e+003;1.574231e+001
1.029818e+003;1.575574e+001
1.031746e+003;1.576665e+001
1.033675e+003;1.577638e+001
1.035603e+003;1.578475e+001
1.037531e+003;1.578821e+001
1.039460e+003;1.578464e+001
1.041389e+003;1.577333e+001
1.043317e+003;1.575614e+001
1.045245e+003;1.573875e+001
1.047174e+003;1.572289e+001
1.049103e+003;1.570775e+001
1.051031e+003;1.569227e+001
1.052959e+003;1.567285e+001
1.054888e+003;1.564916e+001
1.056817e+003;1.562375e+001
1.058745e+003;1.559804e+001
1.060673e+003;1.557327e+001
1.062602e+003;1.554866e+001
1.064531e+003;1.551985e+001
1.066459e+003;1.548433e+001
1.068387e+003;1.544227e+001
1.070316e+003;1.539456e+001
1.072245e+003;1.534127e+001
1.074173e+003;1.528293e+001
1.076101e+003;1.522723e+001
1.078030e+003;1.516817e+001
1.079958e+003;1.510272e+001
1.081887e+003;1.505274e+001
1.083815e+003;1.500612e+001
1.085744e+003;1.493483e+001
1.087672e+003;1.483472e+001
1.089601e+003;1.471288e+001
1.091529e+003;1.457320e+001
1.093458e+003;1.442357e+001
1.095386e+003;1.427555e+001
1.097315e+003;1.413844e+001
1.099243e+003;1.402078e+001
1.101172e+003;1.392929e+001
1.103100e+003;1.386657e+001
1.105029e+003;1.383736e+001
1.106957e+003;1.384481e+001
1.108886e+003;1.388812e+001
1.110814e+003;1.396718e+001
1.112743e+003;1.408170e+001
1.114671e+003;1.422714e+001
1.116600e+003;1.440123e+001
1.118528e+003;1.459854e+001
1.120457e+003;1.481308e+001
1.122385e+003;1.504221e+001
1.124314e+003;1.527862e+001
1.126242e+003;1.551124e+001
1.128171e+003;1.573128e+001
1.130099e+003;1.592674e+001
1.132028e+003;1.609398e+001
1.133956e+003;1.623704e+001
1.135885e+003;1.635941e+001
1.137813e+003;1.645992e+001
1.139742e+003;1.653716e+001
1.141670e+003;1.659915e+001
1.143599e+003;1.666695e+001
1.145527e+003;1.673606e+001
1.147456e+003;1.679103e+001
1.149384e+003;1.684176e+001
1.151313e+003;1.691817e+001
1.153241e+003;1.702333e+001
1.155170e+003;1.712073e+001
1.157098e+003;1.719943e+001
1.159027e+003;1.726896e+001
1.160955e+003;1.733571e+001
1.162884e+003;1.739947e+001
1.164812e+003;1.745878e+001
1.166741e+003;1.752062e+001
1.168669e+003;1.757826e+001
1.170598e+003;1.763043e+001
1.172526e+003;1.768029e+001
1.174455e+003;1.772615e+001
1.176383e+003;1.774846e+001
1.178312e+003;1.772096e+001
1.180240e+003;1.769052e+001
1.182169e+003;1.780322e+001
1.184097e+003;1.798688e+001
1.186026e+003;1.809574e+001
1.187954e+003;1.816942e+001
1.189883e+003;1.823092e+001
1.191811e+003;1.828441e+001
1.193740e+003;1.833180e+001
1.195668e+003;1.837900e+001
1.197597e+003;1.842474e+001
1.199525e+003;1.847449e+001
1.201454e+003;1.852117e+001
1.203382e+003;1.856376e+001
1.205311e+003;1.860120e+001
1.207239e+003;1.863570e+001
1.209168e+003;1.866754e+001
1.211096e+003;1.870087e+001
1.213025e+003;1.873222e+001
1.214953e+003;1.876183e+001
1.216882e+003;1.878697e+001
1.218810e+003;1.880785e+001
1.220739e+003;1.882653e+001
1.222667e+003;1.884783e+001
1.224596e+003;1.886847e+001
1.226524e+003;1.888978e+001
1.228453e+003;1.891048e+001
1.230381e+003;1.892920e+001
1.232310e+003;1.894663e+001
1.234238e+003;1.896655e+001
1.236167e+003;1.898652e+001
1.238095e+003;1.900671e+001
1.240024e+003;1.902319e+001
1.241952e+003;1.903456e+001
1.243881e+003;1.904106e+001
1.245809e+003;1.904594e+001
1.247738e+003;1.904943e+001
1.249666e+003;1.905387e+001
1.251595e+003;1.905194e+001
1.253523e+003;1.903822e+001
1.255452e+003;1.900857e+001
1.257380e+003;1.896634e+001
1.259309e+003;1.892365e+001
1.261237e+003;1.889844e+001
1.263166e+003;1.889978e+001
1.265094e+003;1.892934e+001
1.267023e+003;1.897746e+001
1.268951e+003;1.902945e+001
1.270880e+003;1.907113e+001
1.272808e+003;1.910246e+001
1.274737e+003;1.912506e+001
1.276665e+003;1.914126e+001
1.278594e+003;1.914900e+001
1.280522e+003;1.914929e+001
1.282451e+003;1.914586e+001
1.284379e+003;1.914356e+001
1.286308e+003;1.914227e+001
1.288236e+003;1.914323e+001
1.290165e+003;1.914392e+001
1.292093e+003;1.914275e+001
1.294022e+003;1.914030e+001
1.295950e+003;1.914025e+001
1.297879e+003;1.914363e+001
1.299807e+003;1.915141e+001
1.301736e+003;1.915977e+001
1.303664e+003;1.916731e+001
1.305593e+003;1.917430e+001
1.307521e+003;1.918353e+001
1.309450e+003;1.919469e+001
1.311378e+003;1.920926e+001
1.313307e+003;1.922476e+001
1.315235e+003;1.923919e+001
1.317164e+003;1.924968e+001
1.319092e+003;1.925997e+001
1.321021e+003;1.927155e+001
1.322949e+003;1.928585e+001
1.324878e+003;1.930090e+001
1.326806e+003;1.931518e+001
1.328735e+003;1.932676e+001
1.330663e+003;1.933475e+001
1.332592e+003;1.933931e+001
1.334520e+003;1.934617e+001
1.336449e+003;1.935246e+001
1.338377e+003;1.935719e+001
1.340306e+003;1.936224e+001
1.342234e+003;1.936636e+001
1.344163e+003;1.936292e+001
1.346091e+003;1.935733e+001
1.348020e+003;1.935089e+001
1.349948e+003;1.934716e+001
1.351877e+003;1.934428e+001
1.353805e+003;1.933798e+001
1.355734e+003;1.932949e+001
1.357662e+003;1.932229e+001
1.359591e+003;1.931278e+001
1.361519e+003;1.930277e+001
1.363448e+003;1.929663e+001
1.365376e+003;1.929545e+001
1.367305e+003;1.928768e+001
1.369233e+003;1.927715e+001
1.371161e+003;1.926608e+001
1.373090e+003;1.925471e+001
1.375019e+003;1.924801e+001
1.376947e+003;1.924642e+001
1.378875e+003;1.923937e+001
1.380804e+003;1.922645e+001
1.382733e+003;1.920741e+001
1.384661e+003;1.920053e+001
1.386589e+003;1.920344e+001
1.388518e+003;1.922115e+001
1.390447e+003;1.923797e+001
1.392375e+003;1.923299e+001
1.394303e+003;1.921952e+001
1.396232e+003;1.922000e+001
1.398161e+003;1.921972e+001
1.400089e+003;1.922538e+001
1.402017e+003;1.923355e+001
1.403946e+003;1.922954e+001
1.405875e+003;1.922892e+001
1.407803e+003;1.923102e+001
1.409731e+003;1.922886e+001
1.411660e+003;1.923006e+001
1.413589e+003;1.922879e+001
1.415517e+003;1.921987e+001
1.417445e+003;1.919518e+001
1.419374e+003;1.917254e+001
1.421302e+003;1.918414e+001
1.423231e+003;1.918739e+001
1.425159e+003;1.917751e+001
1.427088e+003;1.916596e+001
1.429016e+003;1.914453e+001
1.430945e+003;1.912314e+001
1.432873e+003;1.910403e+001
1.434802e+003;1.906581e+001
1.436730e+003;1.902472e+001
1.438659e+003;1.903145e+001
1.440587e+003;1.902658e+001
1.442516e+003;1.900608e+001
1.444444e+003;1.898881e+001
1.446373e+003;1.897071e+001
1.448301e+003;1.895867e+001
1.450230e+003;1.896506e+001
1.452158e+003;1.896396e+001
1.454087e+003;1.895126e+001
1.456015e+003;1.891625e+001
1.457944e+003;1.892726e+001
1.459872e+003;1.898101e+001
1.461801e+003;1.901630e+001
1.463729e+003;1.902540e+001
1.465658e+003;1.904615e+001
1.467586e+003;1.908018e+001
1.469515e+003;1.909630e+001
1.471443e+003;1.909544e+001
1.473372e+003;1.912067e+001
1.475300e+003;1.916407e+001
1.477229e+003;1.919631e+001
1.479157e+003;1.921903e+001
1.481086e+003;1.922898e+001
1.483014e+003;1.924398e+001
1.484943e+003;1.925302e+001
1.486871e+003;1.925368e+001
1.488800e+003;1.925491e+001
1.490728e+003;1.926106e+001
1.492657e+003;1.927693e+001
1.494585e+003;1.926826e+001
1.496514e+003;1.925101e+001
1.498442e+003;1.926694e+001
1.500371e+003;1.928545e+001
1.502299e+003;1.928606e+001
1.504228e+003;1.924376e+001
1.506156e+003;1.919282e+001
1.508085e+003;1.921328e+001
1.510013e+003;1.925148e+001
1.511942e+003;1.925633e+001
1.513870e+003;1.925163e+001
1.515799e+003;1.923716e+001
1.517727e+003;1.922420e+001
1.519656e+003;1.919183e+001
1.521584e+003;1.916807e+001
1.523513e+003;1.919237e+001
1.525441e+003;1.919527e+001
1.527370e+003;1.919579e+001
1.529298e+003;1.919307e+001
1.531227e+003;1.917958e+001
1.533155e+003;1.915991e+001
1.535084e+003;1.916164e+001
1.537012e+003;1.914123e+001
1.538941e+003;1.908216e+001
1.540869e+003;1.906998e+001
1.542798e+003;1.909865e+001
1.544726e+003;1.911118e+001
1.546655e+003;1.911768e+001
1.548583e+003;1.911646e+001
1.550512e+003;1.910986e+001
1.552440e+003;1.908839e+001
1.554369e+003;1.906349e+001
1.556297e+003;1.903652e+001
1.558226e+003;1.897333e+001
1.560154e+003;1.897685e+001
1.562083e+003;1.903868e+001
1.564011e+003;1.905017e+001
1.565940e+003;1.904413e+001
1.567868e+003;1.902427e+001
1.569797e+003;1.900499e+001
1.571725e+003;1.901274e+001
1.573654e+003;1.899228e+001
1.575582e+003;1.893850e+001
1.577511e+003;1.895015e+001
1.579439e+003;1.897429e+001
1.581368e+003;1.896704e+001
1.583296e+003;1.895897e+001
1.585225e+003;1.894711e+001
1.587153e+003;1.893972e+001
1.589082e+003;1.892809e+001
1.591010e+003;1.891337e+001
1.592939e+003;1.890184e+001
1.594867e+003;1.888892e+001
1.596796e+003;1.887673e+001
1.598724e+003;1.886950e+001
1.600653e+003;1.885489e+001
1.602581e+003;1.883917e+001
1.604510e+003;1.882513e+001
1.606438e+003;1.880280e+001
1.608367e+003;1.877961e+001
1.610295e+003;1.876392e+001
1.612224e+003;1.874540e+001
1.614152e+003;1.870887e+001
1.616081e+003;1.863815e+001
1.618009e+003;1.860177e+001
1.619938e+003;1.860445e+001
1.621866e+003;1.860850e+001
1.623795e+003;1.862572e+001
1.625723e+003;1.865089e+001
1.627652e+003;1.865445e+001
1.629580e+003;1.865186e+001
1.631509e+003;1.865178e+001
1.633437e+003;1.862287e+001
1.635366e+003;1.858667e+001
1.637294e+003;1.860316e+001
1.639223e+003;1.861828e+001
1.641151e+003;1.861035e+001
1.643080e+003;1.859781e+001
1.645008e+003;1.855937e+001
1.646937e+003;1.854146e+001
1.648865e+003;1.855588e+001
1.650794e+003;1.850747e+001
1.652722e+003;1.842608e+001
1.654651e+003;1.846885e+001
1.656579e+003;1.851890e+001
1.658508e+003;1.852012e+001
1.660436e+003;1.850510e+001
1.662365e+003;1.848265e+001
1.664293e+003;1.848020e+001
1.666222e+003;1.847146e+001
1.668150e+003;1.843553e+001
1.670079e+003;1.842189e+001
1.672007e+003;1.842633e+001
1.673936e+003;1.840563e+001
1.675864e+003;1.839399e+001
1.677793e+003;1.840296e+001
1.679721e+003;1.839022e+001
1.681650e+003;1.836398e+001
1.683578e+003;1.830322e+001
1.685507e+003;1.830512e+001
1.687435e+003;1.834315e+001
1.689364e+003;1.833948e+001
1.691292e+003;1.833146e+001
1.693221e+003;1.830763e+001
1.695149e+003;1.824902e+001
1.697078e+003;1.824265e+001
1.699006e+003;1.821962e+001
1.700935e+003;1.819988e+001
1.702863e+003;1.823137e+001
1.704792e+003;1.821691e+001
1.706720e+003;1.820331e+001
1.708649e+003;1.819670e+001
1.710577e+003;1.818167e+001
1.712505e+003;1.815536e+001
1.714434e+003;1.812245e+001
1.716363e+003;1.807166e+001
1.718291e+003;1.805375e+001
1.720219e+003;1.807305e+001
1.722148e+003;1.806541e+001
1.724077e+003;1.804624e+001
1.726005e+003;1.802827e+001
1.727933e+003;1.800000e+001
1.729862e+003;1.797489e+001
1.731791e+003;1.793534e+001
1.733719e+003;1.788648e+001
1.735647e+003;1.790636e+001
1.737576e+003;1.792897e+001
1.739505e+003;1.792059e+001
1.741433e+003;1.793567e+001
1.743361e+003;1.794814e+001
1.745290e+003;1.795689e+001
1.747219e+003;1.796053e+001
1.749147e+003;1.794895e+001
1.751075e+003;1.793696e+001
1.753004e+003;1.795203e+001
1.754932e+003;1.795077e+001
1.756861e+003;1.793958e+001
1.758789e+003;1.793860e+001
1.760718e+003;1.792066e+001
1.762646e+003;1.791229e+001
1.764575e+003;1.791253e+001
1.766503e+003;1.789006e+001
1.768432e+003;1.787421e+001
1.770360e+003;1.785870e+001
1.772289e+003;1.783335e+001
1.774217e+003;1.784271e+001
1.776146e+003;1.784553e+001
1.778074e+003;1.783265e+001
1.780003e+003;1.782217e+001
1.781931e+003;1.781127e+001
1.783860e+003;1.779776e+001
1.785788e+003;1.779109e+001
1.787717e+003;1.778197e+001
1.789645e+003;1.776289e+001
1.791574e+003;1.773722e+001
1.793502e+003;1.772705e+001
1.795431e+003;1.773343e+001
1.797359e+003;1.772652e+001
1.799288e+003;1.770875e+001
1.801216e+003;1.769630e+001
1.803145e+003;1.768983e+001
1.805073e+003;1.767794e+001
1.807002e+003;1.766999e+001
1.808930e+003;1.765649e+001
1.810859e+003;1.764090e+001
1.812787e+003;1.763249e+001
1.814716e+003;1.761989e+001
1.816644e+003;1.760385e+001
1.818573e+003;1.759529e+001
1.820501e+003;1.758137e+001
1.822430e+003;1.756593e+001
1.824358e+003;1.754749e+001
1.826287e+003;1.753064e+001
1.828215e+003;1.751483e+001
1.830144e+003;1.749984e+001
1.832072e+003;1.749016e+001
1.834001e+003;1.748105e+001
1.835929e+003;1.746656e+001
1.837858e+003;1.744674e+001
1.839786e+003;1.743288e+001
1.841715e+003;1.741014e+001
1.843643e+003;1.737630e+001
1.845572e+003;1.737104e+001
1.847500e+003;1.736590e+001
1.849429e+003;1.734755e+001
1.851357e+003;1.733394e+001
1.853286e+003;1.731484e+001
1.855214e+003;1.729687e+001
1.857143e+003;1.728315e+001
1.859071e+003;1.726315e+001
1.861000e+003;1.724437e+001
1.862928e+003;1.722935e+001
1.864857e+003;1.720624e+001
1.866785e+003;1.718419e+001
1.868714e+003;1.716398e+001
1.870642e+003;1.714992e+001
1.872571e+003;1.714129e+001
1.874499e+003;1.712479e+001
1.876428e+003;1.710276e+001
1.878356e+003;1.708850e+001
1.880285e+003;1.707257e+001
1.882213e+003;1.705328e+001
1.884142e+003;1.703973e+001
1.886070e+003;1.702097e+001
1.887999e+003;1.699876e+001
1.889927e+003;1.698363e+001
1.891856e+003;1.696777e+001
1.893784e+003;1.695170e+001
1.895713e+003;1.693963e+001
1.897641e+003;1.692067e+001
1.899570e+003;1.690412e+001
1.901498e+003;1.688968e+001
1.903427e+003;1.686968e+001
1.905355e+003;1.685600e+001
1.907284e+003;1.684157e+001
1.909212e+003;1.682037e+001
1.911141e+003;1.680790e+001
1.913069e+003;1.679305e+001
1.914998e+003;1.677169e+001
1.916926e+003;1.675431e+001
1.918855e+003;1.673893e+001
1.920783e+003;1.672488e+001
1.922712e+003;1.671179e+001
1.924640e+003;1.669406e+001
1.926569e+003;1.667688e+001
1.928497e+003;1.666604e+001
1.930426e+003;1.664774e+001
1.932354e+003;1.663143e+001
1.934283e+003;1.661889e+001
1.936211e+003;1.659891e+001
1.938140e+003;1.658297e+001
1.940068e+003;1.656791e+001
1.941997e+003;1.654511e+001
1.943925e+003;1.653385e+001
1.945854e+003;1.652143e+001
1.947782e+003;1.650002e+001
1.949711e+003;1.648582e+001
1.951639e+003;1.647001e+001
1.953568e+003;1.645118e+001
1.955496e+003;1.643886e+001
1.957425e+003;1.641765e+001
1.959353e+003;1.639745e+001
1.961282e+003;1.638774e+001
1.963210e+003;1.636883e+001
1.965139e+003;1.635021e+001
1.967067e+003;1.633777e+001
1.968996e+003;1.631930e+001
1.970924e+003;1.630379e+001
1.972853e+003;1.628934e+001
1.974781e+003;1.626674e+001
1.976710e+003;1.625203e+001
1.978638e+003;1.623872e+001
1.980567e+003;1.621727e+001
1.982495e+003;1.620285e+001
1.984424e+003;1.618629e+001
1.986352e+003;1.616427e+001
1.988281e+003;1.615035e+001
1.990209e+003;1.613130e+001
1.992138e+003;1.611048e+001
1.994066e+003;1.610030e+001
1.995995e+003;1.608074e+001
1.997923e+003;1.605964e+001
1.999852e+003;1.604689e+001
2.001780e+003;1.602679e+001
2.003709e+003;1.600959e+001
2.005637e+003;1.599663e+001
2.007566e+003;1.597392e+001
2.009494e+003;1.595753e+001
2.011423e+003;1.594363e+001
2.013351e+003;1.592107e+001
2.015280e+003;1.590582e+001
2.017208e+003;1.589102e+001
2.019137e+003;1.587059e+001
2.021065e+003;1.585745e+001
2.022994e+003;1.583898e+001
2.024922e+003;1.581738e+001
2.026851e+003;1.580576e+001
2.028779e+003;1.578754e+001
2.030708e+003;1.576792e+001
2.032636e+003;1.575621e+001
2.034565e+003;1.573640e+001
2.036493e+003;1.571817e+001
2.038422e+003;1.570601e+001
2.040350e+003;1.568534e+001
2.042279e+003;1.567006e+001
2.044207e+003;1.565803e+001
2.046135e+003;1.563557e+001
2.048064e+003;1.562029e+001
2.049992e+003;1.560677e+001
2.051921e+003;1.558664e+001
2.053850e+003;1.557466e+001
2.055778e+003;1.555922e+001
2.057707e+003;1.553790e+001
2.059635e+003;1.552628e+001
2.061563e+003;1.550988e+001
2.063492e+003;1.548991e+001
2.065420e+003;1.547941e+001
2.067349e+003;1.546171e+001
2.069278e+003;1.544350e+001
2.071206e+003;1.543218e+001
2.073135e+003;1.541113e+001
2.075063e+003;1.539580e+001
2.076991e+003;1.538505e+001
2.078920e+003;1.536478e+001
2.080848e+003;1.534920e+001
2.082777e+003;1.533619e+001
2.084706e+003;1.531558e+001
2.086634e+003;1.530290e+001
2.088563e+003;1.528943e+001
2.090491e+003;1.526856e+001
2.092419e+003;1.525904e+001
2.094348e+003;1.524260e+001
2.096276e+003;1.522183e+001
2.098205e+003;1.520902e+001
2.100134e+003;1.519233e+001
2.102062e+003;1.517463e+001
2.103990e+003;1.516428e+001
2.105919e+003;1.514502e+001
2.107847e+003;1.512750e+001
2.109776e+003;1.511785e+001
2.111704e+003;1.509665e+001
2.113633e+003;1.508237e+001
2.115562e+003;1.506988e+001
2.117490e+003;1.505182e+001
2.119418e+003;1.503845e+001
2.121347e+003;1.502573e+001
2.123275e+003;1.500410e+001
2.125204e+003;1.499540e+001
2.127132e+003;1.498202e+001
2.129061e+003;1.496294e+001
2.130990e+003;1.495239e+001
2.132918e+003;1.493725e+001
2.134846e+003;1.491962e+001
2.136775e+003;1.491086e+001
2.138703e+003;1.489422e+001
2.140632e+003;1.487856e+001
2.142560e+003;1.486909e+001
2.144489e+003;1.484924e+001
2.146417e+003;1.483291e+001
2.148346e+003;1.482188e+001
2.150274e+003;1.480199e+001
2.152203e+003;1.478913e+001
2.154131e+003;1.477609e+001
2.156060e+003;1.475548e+001
2.157988e+003;1.474331e+001
2.159917e+003;1.472949e+001
2.161845e+003;1.470882e+001
2.163774e+003;1.469866e+001
2.165702e+003;1.468377e+001
2.167631e+003;1.466487e+001
2.169559e+003;1.465339e+001
2.171488e+003;1.463562e+001
2.173416e+003;1.461855e+001
2.175345e+003;1.461022e+001
2.177273e+003;1.459194e+001
2.179202e+003;1.457584e+001
2.181130e+003;1.456462e+001
2.183059e+003;1.454595e+001
2.184987e+003;1.453264e+001
2.186916e+003;1.452167e+001
2.188844e+003;1.450226e+001
2.190773e+003;1.449048e+001
2.192701e+003;1.447793e+001
2.194630e+003;1.445837e+001
2.196558e+003;1.444724e+001
2.198487e+003;1.443420e+001
2.200415e+003;1.441630e+001
2.202344e+003;1.440637e+001
2.204272e+003;1.438995e+001
2.206201e+003;1.437199e+001
2.208129e+003;1.436242e+001
2.210058e+003;1.434606e+001
2.211986e+003;1.432954e+001
2.213915e+003;1.431961e+001
2.215843e+003;1.430101e+001
2.217772e+003;1.428552e+001
2.219700e+003;1.427413e+001
2.221629e+003;1.425512e+001
2.223557e+003;1.424202e+001
2.225486e+003;1.423094e+001
2.227414e+003;1.421015e+001
2.229343e+003;1.419671e+001
2.231271e+003;1.418333e+001
2.233200e+003;1.416412e+001
2.235128e+003;1.415338e+001
2.237057e+003;1.413874e+001
2.238985e+003;1.411855e+001
2.240914e+003;1.410819e+001
2.242842e+003;1.409112e+001
2.244771e+003;1.407211e+001
2.246699e+003;1.406200e+001
2.248628e+003;1.404430e+001
2.250556e+003;1.402749e+001
2.252485e+003;1.401710e+001
2.254413e+003;1.399610e+001
2.256342e+003;1.398098e+001
2.258270e+003;1.397072e+001
2.260199e+003;1.395026e+001
2.262127e+003;1.393696e+001
2.264056e+003;1.392439e+001
2.265984e+003;1.390280e+001
2.267913e+003;1.389121e+001
2.269841e+003;1.387668e+001
2.271770e+003;1.385682e+001
2.273698e+003;1.384751e+001
2.275627e+003;1.383141e+001
2.277555e+003;1.381063e+001
2.279484e+003;1.380094e+001
2.281412e+003;1.378304e+001
2.283341e+003;1.376563e+001
2.285269e+003;1.375589e+001
2.287198e+003;1.373505e+001
2.289126e+003;1.371821e+001
2.291055e+003;1.370822e+001
2.292983e+003;1.368637e+001
2.294912e+003;1.367151e+001
2.296840e+003;1.365993e+001
2.298769e+003;1.363842e+001
2.300697e+003;1.362488e+001
2.302626e+003;1.361005e+001
2.304554e+003;1.358710e+001
2.306483e+003;1.357600e+001
2.308411e+003;1.355964e+001
2.310340e+003;1.353730e+001
2.312268e+003;1.352536e+001
2.314197e+003;1.350538e+001
2.316125e+003;1.348345e+001
2.318054e+003;1.347261e+001
2.319982e+003;1.345067e+001
2.321911e+003;1.343010e+001
2.323839e+003;1.341776e+001
2.325768e+003;1.339443e+001
2.327696e+003;1.337572e+001
2.329625e+003;1.336302e+001
2.331553e+003;1.334041e+001
2.333482e+003;1.332661e+001
2.335410e+003;1.331353e+001
2.337339e+003;1.329183e+001
2.339267e+003;1.328196e+001
2.341196e+003;1.327082e+001
2.343124e+003;1.325327e+001
2.345053e+003;1.325082e+001
2.346981e+003;1.324236e+001
2.348910e+003;1.322631e+001
2.350838e+003;1.321240e+001
2.352767e+003;1.318431e+001
2.354695e+003;1.315737e+001
2.356624e+003;1.314239e+001
2.358552e+003;1.311730e+001
2.360481e+003;1.309841e+001
2.362409e+003;1.308823e+001
2.364338e+003;1.306886e+001
2.366266e+003;1.305938e+001
2.368195e+003;1.305455e+001
2.370123e+003;1.303959e+001
2.372052e+003;1.303628e+001
2.373980e+003;1.303072e+001
2.375908e+003;1.301490e+001
2.377837e+003;1.301029e+001
2.379766e+003;1.300057e+001
2.381694e+003;1.298411e+001
2.383623e+003;1.297891e+001
2.385551e+003;1.296337e+001
2.387479e+003;1.294636e+001
2.389408e+003;1.294015e+001
2.391336e+003;1.292257e+001
2.393265e+003;1.290691e+001
2.395194e+003;1.289966e+001
2.397122e+003;1.287904e+001
2.399051e+003;1.286490e+001
2.400979e+003;1.285482e+001
2.402907e+003;1.283308e+001
2.404836e+003;1.282165e+001
2.406764e+003;1.281076e+001
2.408693e+003;1.278849e+001
2.410622e+003;1.277831e+001
2.412550e+003;1.276453e+001
2.414479e+003;1.274380e+001
2.416407e+003;1.273511e+001
2.418335e+003;1.271856e+001
2.420264e+003;1.269862e+001
2.422192e+003;1.269092e+001
2.424121e+003;1.267171e+001
2.426050e+003;1.265380e+001
2.427978e+003;1.264592e+001
2.429906e+003;1.262586e+001
2.431835e+003;1.261059e+001
2.433763e+003;1.260170e+001
2.435692e+003;1.257932e+001
2.437620e+003;1.256654e+001
2.439549e+003;1.255626e+001
2.441478e+003;1.253432e+001
2.443406e+003;1.252327e+001
2.445334e+003;1.251046e+001
2.447263e+003;1.248851e+001
2.449191e+003;1.247933e+001
2.451120e+003;1.246338e+001
2.453048e+003;1.244316e+001
2.454977e+003;1.243623e+001
2.456906e+003;1.241900e+001
2.458834e+003;1.239920e+001
2.460762e+003;1.239128e+001
2.462691e+003;1.237169e+001
2.464619e+003;1.235616e+001
2.466548e+003;1.234789e+001
2.468476e+003;1.232598e+001
2.470405e+003;1.231191e+001
2.472333e+003;1.230278e+001
2.474262e+003;1.228014e+001
2.476190e+003;1.226845e+001
2.478119e+003;1.225684e+001
2.480047e+003;1.223526e+001
2.481976e+003;1.222582e+001
2.483904e+003;1.221135e+001
2.485833e+003;1.218957e+001
2.487761e+003;1.218215e+001
2.489690e+003;1.216594e+001
2.491618e+003;1.214596e+001
2.493547e+003;1.213791e+001
2.495475e+003;1.211893e+001
2.497404e+003;1.210163e+001
2.499332e+003;1.209403e+001
2.501261e+003;1.207282e+001
2.503189e+003;1.205871e+001
2.505118e+003;1.205036e+001
2.507046e+003;1.202806e+001
2.508975e+003;1.201502e+001
2.510903e+003;1.200487e+001
2.512832e+003;1.198300e+001
2.514760e+003;1.197342e+001
2.516689e+003;1.196044e+001
2.518617e+003;1.193842e+001
2.520546e+003;1.192973e+001
2.522474e+003;1.191477e+001
2.524403e+003;1.189429e+001
2.526331e+003;1.188686e+001
2.528260e+003;1.186910e+001
2.530188e+003;1.185083e+001
2.532117e+003;1.184245e+001
2.534045e+003;1.182205e+001
2.535974e+003;1.180612e+001
2.537902e+003;1.179889e+001
2.539831e+003;1.177699e+001
2.541759e+003;1.176264e+001
2.543688e+003;1.175242e+001
2.545616e+003;1.173038e+001
2.547545e+003;1.171911e+001
2.549473e+003;1.170719e+001
2.551402e+003;1.168480e+001
2.553330e+003;1.167604e+001
2.555259e+003;1.166173e+001
2.557187e+003;1.164036e+001
2.559116e+003;1.163218e+001
2.561044e+003;1.161594e+001
2.562973e+003;1.159700e+001
2.564901e+003;1.158957e+001
2.566830e+003;1.156985e+001
2.568758e+003;1.155277e+001
2.570687e+003;1.154515e+001
2.572615e+003;1.152493e+001
2.574544e+003;1.151031e+001
2.576472e+003;1.150124e+001
2.578401e+003;1.147956e+001
2.580329e+003;1.146787e+001
2.582258e+003;1.145653e+001
2.584186e+003;1.143448e+001
2.586115e+003;1.142515e+001
2.588043e+003;1.141273e+001
2.589972e+003;1.139081e+001
2.591900e+003;1.138226e+001
2.593829e+003;1.136666e+001
2.595757e+003;1.134723e+001
2.597686e+003;1.134008e+001
2.599614e+003;1.132210e+001
2.601543e+003;1.130390e+001
2.603471e+003;1.129676e+001
2.605400e+003;1.127647e+001
2.607328e+003;1.126079e+001
2.609257e+003;1.125261e+001
2.611185e+003;1.123220e+001
2.613114e+003;1.121934e+001
2.615042e+003;1.120918e+001
2.616971e+003;1.118677e+001
2.618899e+003;1.117669e+001
2.620828e+003;1.116531e+001
2.622756e+003;1.114419e+001
2.624685e+003;1.113483e+001
2.626613e+003;1.112018e+001
2.628542e+003;1.109966e+001
2.630470e+003;1.109226e+001
2.632399e+003;1.107485e+001
2.634327e+003;1.105651e+001
2.636256e+003;1.104983e+001
2.638184e+003;1.103126e+001
2.640113e+003;1.101449e+001
2.642041e+003;1.100651e+001
2.643970e+003;1.098592e+001
2.645898e+003;1.097272e+001
2.647827e+003;1.096345e+001
2.649755e+003;1.094171e+001
2.651684e+003;1.093035e+001
2.653612e+003;1.092007e+001
2.655541e+003;1.089824e+001
2.657469e+003;1.088888e+001
2.659398e+003;1.087551e+001
2.661326e+003;1.085531e+001
2.663255e+003;1.084730e+001
2.665183e+003;1.083109e+001
2.667112e+003;1.081187e+001
2.669040e+003;1.080535e+001
2.670969e+003;1.078718e+001
2.672897e+003;1.077012e+001
2.674826e+003;1.076233e+001
2.676754e+003;1.074277e+001
2.678683e+003;1.072858e+001
2.680611e+003;1.072016e+001
2.682540e+003;1.069850e+001
2.684468e+003;1.068692e+001
2.686397e+003;1.067722e+001
2.688325e+003;1.065561e+001
2.690254e+003;1.064518e+001
2.692182e+003;1.063321e+001
2.694111e+003;1.061252e+001
2.696039e+003;1.060475e+001
2.697968e+003;1.058973e+001
2.699896e+003;1.056988e+001
2.701825e+003;1.056279e+001
2.703753e+003;1.054628e+001
2.705682e+003;1.052809e+001
2.707610e+003;1.052095e+001
2.709539e+003;1.050204e+001
2.711467e+003;1.048667e+001
2.713396e+003;1.047823e+001
2.715324e+003;1.045771e+001
2.717253e+003;1.044451e+001
2.719181e+003;1.043604e+001
2.721110e+003;1.041496e+001
2.723038e+003;1.040332e+001
2.724967e+003;1.039155e+001
2.726895e+003;1.037156e+001
2.728823e+003;1.036300e+001
2.730752e+003;1.034930e+001
2.732681e+003;1.032910e+001
2.734609e+003;1.032159e+001
2.736538e+003;1.030582e+001
2.738466e+003;1.028753e+001
2.740395e+003;1.027976e+001
2.742323e+003;1.026256e+001
2.744251e+003;1.024724e+001
2.746180e+003;1.023957e+001
2.748109e+003;1.021927e+001
2.750037e+003;1.020566e+001
2.751966e+003;1.019711e+001
2.753894e+003;1.017711e+001
2.755823e+003;1.016516e+001
2.757751e+003;1.015441e+001
2.759679e+003;1.013426e+001
2.761608e+003;1.012540e+001
2.763537e+003;1.011241e+001
2.765465e+003;1.009260e+001
2.767394e+003;1.008478e+001
2.769322e+003;1.007012e+001
2.771250e+003;1.005058e+001
2.773179e+003;1.004208e+001
2.775107e+003;1.002500e+001
2.777036e+003;1.000978e+001
2.778965e+003;1.000238e+001
2.780893e+003;9.983097e+000
2.782822e+003;9.968420e+000
2.784750e+003;9.960697e+000
2.786678e+003;9.940449e+000
2.788607e+003;9.927906e+000
2.790535e+003;9.917774e+000
2.792464e+003;9.897880e+000
2.794393e+003;9.887862e+000
2.796321e+003;9.875614e+000
2.798250e+003;9.854803e+000
2.800178e+003;9.846813e+000
2.802106e+003;9.833489e+000
2.804035e+003;9.814489e+000
2.805963e+003;9.806176e+000
2.807892e+003;9.790174e+000
2.809821e+003;9.773119e+000
2.811749e+003;9.765502e+000
2.813677e+003;9.746266e+000
2.815606e+003;9.730890e+000
2.817534e+003;9.722842e+000
2.819463e+003;9.703058e+000
2.821391e+003;9.688645e+000
2.823320e+003;9.678811e+000
2.825249e+003;9.659079e+000
2.827177e+003;9.648171e+000
2.829105e+003;9.635559e+000
2.831034e+003;9.614098e+000
2.832962e+003;9.603958e+000
2.834891e+003;9.590214e+000
2.836819e+003;9.568807e+000
2.838748e+003;9.557922e+000
2.840677e+003;9.539627e+000
2.842605e+003;9.518597e+000
2.844533e+003;9.506093e+000
2.846462e+003;9.483547e+000
2.848390e+003;9.462563e+000
2.850319e+003;9.451077e+000
2.852247e+003;9.428370e+000
2.854176e+003;9.410674e+000
2.856104e+003;9.399360e+000
2.858033e+003;9.380543e+000
2.859961e+003;9.369982e+000
2.861890e+003;9.359931e+000
2.863818e+003;9.340344e+000
2.865747e+003;9.331538e+000
2.867675e+003;9.319593e+000
2.869604e+003;9.299767e+000
2.871532e+003;9.289526e+000
2.873461e+003;9.275255e+000
2.875389e+003;9.258509e+000
2.877318e+003;9.251998e+000
2.879246e+003;9.236181e+000
2.881175e+003;9.221577e+000
2.883103e+003;9.215308e+000
2.885032e+003;9.197932e+000
2.886960e+003;9.182255e+000
2.888889e+003;9.172445e+000
2.890817e+003;9.152664e+000
2.892746e+003;9.139864e+000
2.894674e+003;9.127920e+000
2.896603e+003;9.106202e+000
2.898531e+003;9.093900e+000
2.900460e+003;9.080580e+000
2.902388e+003;9.058456e+000
2.904317e+003;9.046198e+000
2.906245e+003;9.029490e+000
2.908174e+003;9.009392e+000
2.910102e+003;8.998590e+000
2.912031e+003;8.979136e+000
2.913959e+003;8.957553e+000
2.915888e+003;8.945983e+000
2.917816e+003;8.924674e+000
2.919745e+003;8.904961e+000
2.921673e+003;8.892187e+000
2.923602e+003;8.871344e+000
2.925530e+003;8.857073e+000
2.927459e+003;8.847361e+000
2.929387e+003;8.828873e+000
2.931316e+003;8.820605e+000
2.933244e+003;8.813766e+000
2.935173e+003;8.798608e+000
2.937101e+003;8.791968e+000
2.939030e+003;8.783714e+000
2.940958e+003;8.770296e+000
2.942887e+003;8.765666e+000
2.944815e+003;8.752609e+000
2.946744e+003;8.736344e+000
2.948672e+003;8.728199e+000
2.950601e+003;8.710434e+000
2.952529e+003;8.690471e+000
2.954458e+003;8.677099e+000
2.956386e+003;8.654697e+000
2.958315e+003;8.637143e+000
2.960243e+003;8.623398e+000
2.962172e+003;8.601302e+000
2.964100e+003;8.589654e+000
2.966029e+003;8.584693e+000
2.967957e+003;8.575025e+000
2.969886e+003;8.576082e+000
2.971814e+003;8.574998e+000
2.973743e+003;8.567586e+000
2.975671e+003;8.567431e+000
2.977600e+003;8.559433e+000
2.979528e+003;8.547175e+000
2.981457e+003;8.544903e+000
2.983385e+003;8.533661e+000
2.985314e+003;8.521005e+000
2.987242e+003;8.514460e+000
2.989171e+003;8.499852e+000
2.991099e+003;8.489026e+000
2.993028e+003;8.481664e+000
2.994956e+003;8.463682e+000
2.996885e+003;8.453433e+000
2.998813e+003;8.445152e+000
3.000742e+003;8.427833e+000
3.002670e+003;8.417444e+000
3.004599e+003;8.406027e+000
3.006527e+003;8.388722e+000
3.008456e+003;8.381289e+000
3.010384e+003;8.367850e+000
3.012313e+003;8.349995e+000
3.014241e+003;8.341956e+000
3.016170e+003;8.327309e+000
3.018098e+003;8.311243e+000
3.020027e+003;8.303720e+000
3.021955e+003;8.287497e+000
3.023884e+003;8.274323e+000
3.025812e+003;8.266043e+000
3.027741e+003;8.247824e+000
3.029669e+003;8.235047e+000
3.031598e+003;8.226803e+000
3.033526e+003;8.208920e+000
3.035455e+003;8.197084e+000
3.037383e+003;8.185818e+000
3.039312e+003;8.169213e+000
3.041240e+003;8.160626e+000
3.043169e+003;8.147912e+000
3.045097e+003;8.129416e+000
3.047026e+003;8.121197e+000
3.048954e+003;8.107754e+000
3.050883e+003;8.091664e+000
3.052811e+003;8.081968e+000
3.054740e+003;8.066348e+000
3.056668e+003;8.052423e+000
3.058597e+003;8.043969e+000
3.060525e+003;8.026183e+000
3.062454e+003;8.013041e+000
3.064382e+003;8.004053e+000
3.066311e+003;7.986986e+000
3.068239e+003;7.974785e+000
3.070167e+003;7.963711e+000
3.072096e+003;7.946489e+000
3.074025e+003;7.937428e+000
3.075953e+003;7.924632e+000
3.077882e+003;7.907146e+000
3.079810e+003;7.898370e+000
3.081739e+003;7.884955e+000
3.083667e+003;7.868044e+000
3.085595e+003;7.858449e+000
3.087524e+003;7.842795e+000
3.089453e+003;7.829176e+000
3.091381e+003;7.820197e+000
3.093310e+003;7.802263e+000
3.095238e+003;7.788364e+000
3.097167e+003;7.780380e+000
3.099095e+003;7.763129e+000
3.101023e+003;7.750677e+000
3.102952e+003;7.739662e+000
3.104881e+003;7.722426e+000
3.106809e+003;7.712786e+000
3.108738e+003;7.700848e+000
3.110666e+003;7.682146e+000
3.112594e+003;7.673151e+000
3.114523e+003;7.661242e+000
3.116451e+003;7.645003e+000
3.118380e+003;7.635022e+000
3.120309e+003;7.620343e+000
3.122237e+003;7.605258e+000
3.124166e+003;7.596888e+000
3.126094e+003;7.580094e+000
3.128022e+003;7.566134e+000
3.129951e+003;7.557903e+000
3.131879e+003;7.541922e+000
3.133808e+003;7.528855e+000
3.135737e+003;7.518602e+000
3.137665e+003;7.502275e+000
3.139594e+003;7.492336e+000
3.141522e+003;7.480360e+000
3.143450e+003;7.462592e+000
3.145379e+003;7.452917e+000
3.147307e+003;7.441578e+000
3.149236e+003;7.425266e+000
3.151165e+003;7.415462e+000
3.153093e+003;7.400895e+000
3.155021e+003;7.386706e+000
3.156950e+003;7.378050e+000
3.158878e+003;7.362105e+000
3.160807e+003;7.347658e+000
3.162735e+003;7.339242e+000
3.164664e+003;7.323413e+000
3.166593e+003;7.310469e+000
3.168521e+003;7.299589e+000
3.170449e+003;7.283785e+000
3.172378e+003;7.273617e+000
3.174306e+003;7.261933e+000
3.176235e+003;7.243786e+000
3.178163e+003;7.234026e+000
3.180092e+003;7.222600e+000
3.182021e+003;7.206804e+000
3.183949e+003;7.196519e+000
3.185877e+003;7.182418e+000
3.187806e+003;7.167771e+000
3.189734e+003;7.159296e+000
3.191663e+003;7.143106e+000
3.193591e+003;7.128259e+000
3.195520e+003;7.119148e+000
3.197448e+003;7.103521e+000
3.199377e+003;7.089739e+000
3.201305e+003;7.079131e+000
3.203234e+003;7.062649e+000
3.205162e+003;7.051980e+000
3.207091e+003;7.040956e+000
3.209019e+003;7.023792e+000
3.210948e+003;7.013840e+000
3.212876e+003;7.003549e+000
3.214805e+003;6.988116e+000
3.216733e+003;6.978464e+000
3.218662e+003;6.965397e+000
3.220590e+003;6.951590e+000
3.222519e+003;6.943293e+000
3.224447e+003;6.928767e+000
3.226376e+003;6.913902e+000
3.228304e+003;6.905899e+000
3.230233e+003;6.891964e+000
3.232161e+003;6.878982e+000
3.234090e+003;6.868265e+000
3.236018e+003;6.853133e+000
3.237947e+003;6.842302e+000
3.239875e+003;6.831859e+000
3.241804e+003;6.815135e+000
3.243732e+003;6.804497e+000
3.245661e+003;6.793899e+000
3.247589e+003;6.778981e+000
3.249518e+003;6.768049e+000
3.251446e+003;6.755177e+000
3.253375e+003;6.740993e+000
3.255303e+003;6.732361e+000
3.257232e+003;6.717642e+000
3.259160e+003;6.703378e+000
3.261089e+003;6.694860e+000
3.263017e+003;6.681299e+000
3.264946e+003;6.667940e+000
3.266874e+003;6.657936e+000
3.268803e+003;6.643229e+000
3.270731e+003;6.632904e+000
3.272660e+003;6.622405e+000
3.274588e+003;6.606202e+000
3.276517e+003;6.595606e+000
3.278445e+003;6.585773e+000
3.280374e+003;6.570649e+000
3.282302e+003;6.560237e+000
3.284231e+003;6.547724e+000
3.286159e+003;6.534109e+000
3.288088e+003;6.525548e+000
3.290016e+003;6.512473e+000
3.291945e+003;6.498026e+000
3.293873e+003;6.489681e+000
3.295802e+003;6.476513e+000
3.297730e+003;6.463601e+000
3.299659e+003;6.453838e+000
3.301587e+003;6.440254e+000
3.303516e+003;6.429863e+000
3.305444e+003;6.420691e+000
3.307373e+003;6.404953e+000
3.309301e+003;6.394193e+000
3.311230e+003;6.384478e+000
3.313158e+003;6.370865e+000
3.315087e+003;6.360386e+000
3.317015e+003;6.348820e+000
3.318944e+003;6.335549e+000
3.320872e+003;6.327484e+000
3.322801e+003;6.315183e+000
3.324729e+003;6.301863e+000
3.326658e+003;6.293092e+000
3.328586e+003;6.281171e+000
3.330515e+003;6.268789e+000
3.332443e+003;6.259349e+000
3.334372e+003;6.245918e+000
3.336300e+003;6.235988e+000
3.338229e+003;6.227143e+000
3.340157e+003;6.213050e+000
3.342086e+003;6.202283e+000
3.344014e+003;6.193501e+000
3.345943e+003;6.180767e+000
3.347871e+003;6.171231e+000
3.349800e+003;6.160023e+000
3.351728e+003;6.147773e+000
3.353657e+003;6.139587e+000
3.355585e+003;6.127755e+000
3.357514e+003;6.114505e+000
3.359442e+003;6.106698e+000
3.361371e+003;6.095340e+000
3.363299e+003;6.083903e+000
3.365228e+003;6.074504e+000
3.367156e+003;6.062022e+000
3.369085e+003;6.052265e+000
3.371013e+003;6.043822e+000
3.372942e+003;6.029595e+000
3.374870e+003;6.019092e+000
3.376799e+003;6.010292e+000
3.378727e+003;5.998262e+000
3.380656e+003;5.988286e+000
3.382584e+003;5.977393e+000
3.384513e+003;5.964799e+000
3.386441e+003;5.956762e+000
3.388370e+003;5.945071e+000
3.390298e+003;5.931733e+000
3.392227e+003;5.922727e+000
3.394155e+003;5.911681e+000
3.396083e+003;5.899604e+000
3.398012e+003;5.889719e+000
3.399941e+003;5.876741e+000
3.401869e+003;5.866265e+000
3.403798e+003;5.856863e+000
3.405726e+003;5.842703e+000
3.407655e+003;5.830536e+000
3.409583e+003;5.820722e+000
3.411511e+003;5.807573e+000
3.413440e+003;5.796008e+000
3.415369e+003;5.782681e+000
3.417297e+003;5.768584e+000
3.419226e+003;5.757872e+000
3.421154e+003;5.744181e+000
3.423083e+003;5.727724e+000
3.425011e+003;5.715384e+000
3.426939e+003;5.700778e+000
3.428868e+003;5.685329e+000
3.430797e+003;5.670919e+000
3.432725e+003;5.654564e+000
3.434654e+003;5.640706e+000
3.436582e+003;5.629415e+000
3.438510e+003;5.614218e+000
3.440439e+003;5.602112e+000
3.442367e+003;5.592968e+000
3.444296e+003;5.582587e+000
3.446225e+003;5.573316e+000
3.448153e+003;5.564094e+000
3.450082e+003;5.554285e+000
3.452010e+003;5.548039e+000
3.453938e+003;5.538675e+000
3.455867e+003;5.527096e+000
3.457795e+003;5.518899e+000
3.459724e+003;5.509731e+000
3.461653e+003;5.499438e+000
3.463581e+003;5.490816e+000
3.465510e+003;5.479693e+000
3.467438e+003;5.471539e+000
3.469366e+003;5.464623e+000
3.471295e+003;5.453827e+000
3.473223e+003;5.444574e+000
3.475152e+003;5.438385e+000
3.477081e+003;5.430388e+000
3.479009e+003;5.423637e+000
3.480938e+003;5.415831e+000
3.482866e+003;5.408648e+000
3.484794e+003;5.405088e+000
3.486723e+003;5.399149e+000
3.488651e+003;5.391126e+000
3.490580e+003;5.387086e+000
3.492509e+003;5.382600e+000
3.494437e+003;5.377489e+000
3.496365e+003;5.372445e+000
3.498294e+003;5.366124e+000
3.500222e+003;5.361818e+000
3.502151e+003;5.358594e+000
3.504079e+003;5.351194e+000
3.506008e+003;5.345537e+000
3.507937e+003;5.341366e+000
3.509865e+003;5.336271e+000
3.511793e+003;5.331298e+000
3.513722e+003;5.324938e+000
3.515650e+003;5.317985e+000
3.517579e+003;5.314409e+000
3.519507e+003;5.308551e+000
3.521436e+003;5.300129e+000
3.523365e+003;5.293898e+000
3.525293e+003;5.288487e+000
3.527221e+003;5.281595e+000
3.529150e+003;5.275257e+000
3.531078e+003;5.267416e+000
3.533007e+003;5.261884e+000
3.534935e+003;5.256492e+000
3.536864e+003;5.247706e+000
3.538792e+003;5.239695e+000
3.540721e+003;5.233653e+000
3.542649e+003;5.225819e+000
3.544578e+003;5.217789e+000
3.546506e+003;5.208792e+000
3.548435e+003;5.201155e+000
3.550363e+003;5.195242e+000
3.552292e+003;5.187163e+000
3.554220e+003;5.177470e+000
3.556149e+003;5.170280e+000
3.558077e+003;5.162564e+000
3.560006e+003;5.154446e+000
3.561934e+003;5.145482e+000
3.563863e+003;5.134391e+000
3.565791e+003;5.123992e+000
3.567720e+003;5.117133e+000
3.569648e+003;5.110118e+000
3.571577e+003;5.102535e+000
3.573505e+003;5.094890e+000
3.575434e+003;5.087346e+000
3.577362e+003;5.079706e+000
3.579291e+003;5.070776e+000
3.581219e+003;5.061863e+000
3.583148e+003;5.055642e+000
3.585076e+003;5.045454e+000
3.587005e+003;5.033073e+000
3.588933e+003;5.026340e+000
3.590862e+003;5.022226e+000
3.592790e+003;5.014853e+000
3.594719e+003;5.006266e+000
3.596647e+003;4.996956e+000
3.598576e+003;4.990249e+000
3.600504e+003;4.983398e+000
3.602433e+003;4.974763e+000
3.604361e+003;4.965259e+000
3.606290e+003;4.955694e+000
3.608218e+003;4.945456e+000
3.610147e+003;4.938281e+000
3.612075e+003;4.928693e+000
3.614004e+003;4.920357e+000
3.615932e+003;4.913943e+000
3.617861e+003;4.903023e+000
3.619789e+003;4.892471e+000
3.621718e+003;4.887299e+000
3.623646e+003;4.880762e+000
3.625575e+003;4.871229e+000
3.627503e+003;4.853641e+000
3.629432e+003;4.841379e+000
3.631360e+003;4.841178e+000
3.633289e+003;4.836425e+000
3.635217e+003;4.826913e+000
3.637146e+003;4.817137e+000
3.639074e+003;4.807662e+000
3.641003e+003;4.798709e+000
3.642931e+003;4.787781e+000
3.644860e+003;4.770760e+000
3.646788e+003;4.749611e+000
3.648717e+003;4.736422e+000
3.650645e+003;4.735671e+000
3.652574e+003;4.737719e+000
3.654502e+003;4.729455e+000
3.656431e+003;4.719893e+000
3.658359e+003;4.715983e+000
3.660288e+003;4.708046e+000
3.662216e+003;4.696784e+000
3.664145e+003;4.688225e+000
3.666073e+003;4.679241e+000
3.668002e+003;4.664757e+000
3.669930e+003;4.648887e+000
3.671859e+003;4.643385e+000
3.673787e+003;4.633534e+000
3.675716e+003;4.621439e+000
3.677644e+003;4.618849e+000
3.679573e+003;4.614035e+000
3.681501e+003;4.608485e+000
3.683430e+003;4.600609e+000
3.685358e+003;4.589251e+000
3.687287e+003;4.572276e+000
3.689215e+003;4.563576e+000
3.691144e+003;4.563041e+000
3.693072e+003;4.557698e+000
3.695001e+003;4.549524e+000
3.696929e+003;4.542546e+000
3.698858e+003;4.535571e+000
3.700786e+003;4.525052e+000
3.702715e+003;4.516533e+000
3.704643e+003;4.509245e+000
3.706572e+003;4.502154e+000
3.708500e+003;4.491792e+000
3.710429e+003;4.477630e+000
3.712357e+003;4.468162e+000
3.714286e+003;4.466467e+000
3.716214e+003;4.459599e+000
3.718143e+003;4.449195e+000
3.720071e+003;4.437325e+000
3.722000e+003;4.426819e+000
3.723928e+003;4.417776e+000
3.725857e+003;4.405343e+000
3.727785e+003;4.392275e+000
3.729714e+003;4.379994e+000
3.731642e+003;4.363514e+000
3.733571e+003;4.350615e+000
3.735499e+003;4.338627e+000
3.737427e+003;4.335564e+000
3.739356e+003;4.340403e+000
3.741285e+003;4.342850e+000
3.743213e+003;4.332204e+000
3.745142e+003;4.334210e+000
3.747070e+003;4.344475e+000
3.748999e+003;4.338784e+000
3.750927e+003;4.334252e+000
3.752855e+003;4.334769e+000
3.754784e+003;4.338402e+000
3.756713e+003;4.336332e+000
3.758641e+003;4.329601e+000
3.760570e+003;4.322580e+000
3.762498e+003;4.319490e+000
3.764427e+003;4.312409e+000
3.766355e+003;4.305734e+000
3.768283e+003;4.297486e+000
3.770212e+003;4.289250e+000
3.772141e+003;4.286597e+000
3.774069e+003;4.282151e+000
3.775998e+003;4.272579e+000
3.777926e+003;4.263564e+000
3.779854e+003;4.257540e+000
3.781783e+003;4.252369e+000
3.783711e+003;4.245255e+000
3.785640e+003;4.236944e+000
3.787569e+003;4.230017e+000
3.789497e+003;4.225671e+000
3.791426e+003;4.217574e+000
3.793354e+003;4.207817e+000
3.795282e+003;4.200020e+000
3.797211e+003;4.193413e+000
3.799139e+003;4.183165e+000
3.801068e+003;4.169924e+000
3.802997e+003;4.166305e+000
3.804925e+003;4.162415e+000
3.806854e+003;4.153868e+000
3.808782e+003;4.149014e+000
3.810710e+003;4.144056e+000
3.812639e+003;4.137126e+000
3.814567e+003;4.123388e+000
3.816496e+003;4.114886e+000
3.818425e+003;4.110398e+000
3.820353e+003;4.099613e+000
3.822281e+003;4.097293e+000
3.824210e+003;4.093889e+000
3.826138e+003;4.084754e+000
3.828067e+003;4.079404e+000
3.829995e+003;4.071843e+000
3.831924e+003;4.063714e+000
3.833853e+003;4.055943e+000
3.835781e+003;4.042410e+000
3.837709e+003;4.033460e+000
3.839638e+003;4.033253e+000
3.841566e+003;4.027027e+000
3.843495e+003;4.020466e+000
3.845423e+003;4.016549e+000
3.847352e+003;4.010340e+000
3.849281e+003;4.001329e+000
3.851209e+003;3.983722e+000
3.853137e+003;3.966789e+000
3.855066e+003;3.970502e+000
3.856994e+003;3.974130e+000
3.858923e+003;3.966733e+000
3.860851e+003;3.959895e+000
3.862780e+003;3.951747e+000
3.864708e+003;3.944506e+000
3.866637e+003;3.939177e+000
3.868565e+003;3.926541e+000
3.870494e+003;3.920524e+000
3.872422e+003;3.920255e+000
3.874351e+003;3.911913e+000
3.876279e+003;3.906811e+000
3.878208e+003;3.900322e+000
3.880136e+003;3.891881e+000
3.882065e+003;3.886912e+000
3.883993e+003;3.876943e+000
3.885922e+003;3.867789e+000
3.887850e+003;3.868071e+000
3.889779e+003;3.859571e+000
3.891707e+003;3.850291e+000
3.893636e+003;3.847679e+000
3.895564e+003;3.842218e+000
3.897493e+003;3.833905e+000
3.899421e+003;3.825262e+000
3.901350e+003;3.815090e+000
3.903278e+003;3.810252e+000
3.905207e+003;3.808405e+000
3.907135e+003;3.802263e+000
3.909064e+003;3.795953e+000
3.910992e+003;3.790662e+000
3.912921e+003;3.783643e+000
3.914849e+003;3.777588e+000
3.916778e+003;3.768299e+000
3.918706e+003;3.760903e+000
3.920635e+003;3.758358e+000
3.922563e+003;3.751783e+000
3.924492e+003;3.742695e+000
3.926420e+003;3.738448e+000
3.928349e+003;3.732249e+000
3.930277e+003;3.725881e+000
3.932206e+003;3.719463e+000
3.934134e+003;3.711262e+000
3.936063e+003;3.706831e+000
3.937991e+003;3.703235e+000
3.939920e+003;3.693983e+000
3.941848e+003;3.686838e+000
3.943777e+003;3.681776e+000
3.945705e+003;3.675554e+000
3.947634e+003;3.670311e+000
3.949562e+003;3.662816e+000
3.951491e+003;3.655120e+000
3.953419e+003;3.652604e+000
3.955348e+003;3.645780e+000
3.957276e+003;3.637352e+000
3.959205e+003;3.632591e+000
3.961133e+003;3.626240e+000
3.963062e+003;3.620775e+000
3.964990e+003;3.615755e+000
3.966919e+003;3.606581e+000
3.968847e+003;3.601897e+000
3.970776e+003;3.598306e+000
3.972704e+003;3.589755e+000
3.974633e+003;3.583406e+000
3.976561e+003;3.578690e+000
3.978490e+003;3.572078e+000
3.980418e+003;3.567741e+000
3.982347e+003;3.560204e+000
3.984275e+003;3.552381e+000
3.986204e+003;3.549857e+000
3.988132e+003;3.543944e+000
3.990061e+003;3.535429e+000
3.991989e+003;3.530901e+000
3.993918e+003;3.524884e+000
3.995846e+003;3.520013e+000
3.997775e+003;3.515090e+000
3.999703e+003;3.506046e+000
