3.991989e+002;1.014162e+002
4.011274e+002;1.003844e+002
4.030559e+002;1.002678e+002
4.049844e+002;1.005383e+002
4.069129e+002;1.004447e+002
4.088414e+002;1.002020e+002
4.107699e+002;1.003850e+002
4.126984e+002;1.008776e+002
4.146269e+002;1.007902e+002
4.165554e+002;1.004182e+002
4.184839e+002;1.003600e+002
4.204124e+002;1.004210e+002
4.223409e+002;1.004425e+002
4.242694e+002;1.004233e+002
4.261979e+002;1.006396e+002
4.281264e+002;1.003820e+002
4.300549e+002;1.001475e+002
4.319834e+002;1.002039e+002
4.339119e+002;1.003438e+002
4.358404e+002;1.006680e+002
4.377689e+002;1.007712e+002
4.396974e+002;1.007514e+002
4.416259e+002;1.007023e+002
4.435544e+002;1.004722e+002
4.454829e+002;1.006352e+002
4.474114e+002;1.011014e+002
4.493399e+002;1.011323e+002
4.512684e+002;1.011272e+002
4.531969e+002;1.012653e+002
4.551254e+002;1.012810e+002
4.570539e+002;1.013974e+002
4.589824e+002;1.014225e+002
4.609109e+002;1.014843e+002
4.628394e+002;1.017199e+002
4.647679e+002;1.019430e+002
4.666964e+002;1.019745e+002
4.686248e+002;1.020470e+002
4.705533e+002;1.020244e+002
4.724818e+002;1.019150e+002
4.744103e+002;1.018361e+002
4.763388e+002;1.018360e+002
4.782673e+002;1.017562e+002
4.801958e+002;1.016276e+002
4.821243e+002;1.015309e+002
4.840528e+002;1.015236e+002
4.859813e+002;1.014875e+002
4.879098e+002;1.013548e+002
4.898383e+002;1.012184e+002
4.917668e+002;1.011245e+002
4.936953e+002;1.011257e+002
4.956238e+002;1.011231e+002
4.975523e+002;1.011968e+002
4.994808e+002;1.011657e+002
5.014093e+002;1.011730e+002
5.033378e+002;1.012287e+002
5.052663e+002;1.012021e+002
5.071948e+002;1.011353e+002
5.091233e+002;1.011712e+002
5.110518e+002;1.012386e+002
5.129803e+002;1.013242e+002
5.149088e+002;1.013916e+002
5.168373e+002;1.013373e+002
5.187657e+002;1.012402e+002
5.206943e+002;1.012407e+002
5.226227e+002;1.012465e+002
5.245513e+002;1.012151e+002
5.264797e+002;1.012237e+002
5.284083e+002;1.012747e+002
5.303367e+002;1.012970e+002
5.322653e+002;1.012828e+002
5.341937e+002;1.012397e+002
5.361223e+002;1.012209e+002
5.380507e+002;1.011464e+002
5.399792e+002;1.010760e+002
5.419077e+002;1.010354e+002
5.438362e+002;1.009913e+002
5.457647e+002;1.009011e+002
5.476932e+002;1.008240e+002
5.496217e+002;1.007452e+002
5.515502e+002;1.006633e+002
5.534787e+002;1.005179e+002
5.554072e+002;1.003489e+002
5.573357e+002;1.001412e+002
5.592642e+002;9.998735e+001
5.611927e+002;9.984007e+001
5.631212e+002;9.966927e+001
5.650497e+002;9.945451e+001
5.669782e+002;9.918891e+001
5.689067e+002;9.889285e+001
5.708352e+002;9.860375e+001
5.727637e+002;9.830009e+001
5.746922e+002;9.798298e+001
5.766207e+002;9.761994e+001
5.785492e+002;9.724696e+001
5.804777e+002;9.686469e+001
5.824062e+002;9.644979e+001
5.843347e+002;9.603284e+001
5.862632e+002;9.558875e+001
5.881917e+002;9.513574e+001
5.901202e+002;9.472188e+001
5.920486e+002;9.430502e+001
5.939772e+002;9.393347e+001
5.959056e+002;9.358238e+001
5.978342e+002;9.321211e+001
5.997626e+002;9.287907e+001
6.016912e+002;9.258579e+001
6.036196e+002;9.227248e+001
6.055482e+002;9.201662e+001
6.074766e+002;9.181468e+001
6.094052e+002;9.153088e+001
6.113336e+002;9.119660e+001
6.132621e+002;9.089232e+001
6.151906e+002;9.061462e+001
6.171191e+002;9.035744e+001
6.190476e+002;9.016534e+001
6.209761e+002;8.995987e+001
6.229046e+002;8.962966e+001
6.248331e+002;8.921194e+001
6.267616e+002;8.877581e+001
6.286901e+002;8.830462e+001
6.306186e+002;8.793294e+001
6.325471e+002;8.771251e+001
6.344756e+002;8.755657e+001
6.364041e+002;8.746851e+001
6.383326e+002;8.740347e+001
6.402611e+002;8.736030e+001
6.421896e+002;8.735747e+001
6.441181e+002;8.740142e+001
6.460466e+002;8.747894e+001
6.479751e+002;8.760840e+001
6.499036e+002;8.775117e+001
6.518321e+002;8.792693e+001
6.537606e+002;8.814591e+001
6.556891e+002;8.841486e+001
6.576176e+002;8.869307e+001
6.595461e+002;8.897543e+001
6.614745e+002;8.927090e+001
6.634031e+002;8.960731e+001
6.653315e+002;8.997639e+001
6.672601e+002;9.034632e+001
6.691885e+002;9.072139e+001
6.711171e+002;9.110691e+001
6.730455e+002;9.149925e+001
6.749741e+002;9.191894e+001
6.769025e+002;9.233331e+001
6.788311e+002;9.273571e+001
6.807595e+002;9.315410e+001
6.826880e+002;9.359586e+001
6.846165e+002;9.401511e+001
6.865450e+002;9.442151e+001
6.884735e+002;9.482274e+001
6.904020e+002;9.522282e+001
6.923305e+002;9.561148e+001
6.942590e+002;9.597534e+001
6.961875e+002;9.633030e+001
6.981160e+002;9.669148e+001
7.000445e+002;9.703100e+001
7.019730e+002;9.736391e+001
7.039015e+002;9.768010e+001
7.058300e+002;9.798385e+001
7.077585e+002;9.827965e+001
7.096870e+002;9.856661e+001
7.116155e+002;9.885214e+001
7.135440e+002;9.914211e+001
7.154725e+002;9.939568e+001
7.174010e+002;9.961736e+001
7.193295e+002;9.984126e+001
7.212580e+002;1.000448e+002
7.231865e+002;1.002274e+002
7.251150e+002;1.004222e+002
7.270435e+002;1.006009e+002
7.289720e+002;1.007706e+002
7.309005e+002;1.009267e+002
7.328290e+002;1.010667e+002
7.347574e+002;1.012085e+002
7.366860e+002;1.013448e+002
7.386144e+002;1.014588e+002
7.405430e+002;1.015708e+002
7.424714e+002;1.016705e+002
7.444000e+002;1.017469e+002
7.463284e+002;1.018200e+002
7.482570e+002;1.018931e+002
7.501854e+002;1.019706e+002
7.521140e+002;1.020499e+002
7.540424e+002;1.020958e+002
7.559709e+002;1.021331e+002
7.578994e+002;1.021604e+002
7.598279e+002;1.021784e+002
7.617564e+002;1.021888e+002
7.636849e+002;1.022024e+002
7.656134e+002;1.022160e+002
7.675419e+002;1.022334e+002
7.694704e+002;1.022400e+002
7.713989e+002;1.022479e+002
7.733274e+002;1.022517e+002
7.752559e+002;1.022666e+002
7.771844e+002;1.023028e+002
7.791129e+002;1.023567e+002
7.810414e+002;1.024118e+002
7.829699e+002;1.024668e+002
7.848984e+002;1.025256e+002
7.868269e+002;1.025847e+002
7.887554e+002;1.026488e+002
7.906839e+002;1.027237e+002
7.926124e+002;1.027898e+002
7.945409e+002;1.028554e+002
7.964694e+002;1.029247e+002
7.983979e+002;1.029766e+002
8.003264e+002;1.030104e+002
8.022549e+002;1.030764e+002
8.041833e+002;1.031519e+002
8.061119e+002;1.032092e+002
8.080403e+002;1.032399e+002
8.099689e+002;1.032688e+002
8.118973e+002;1.033005e+002
8.138259e+002;1.033308e+002
8.157543e+002;1.033485e+002
8.176829e+002;1.033652e+002
8.196113e+002;1.033848e+002
8.215399e+002;1.033832e+002
8.234683e+002;1.033624e+002
8.253969e+002;1.033163e+002
8.273253e+002;1.032265e+002
8.292538e+002;1.030914e+002
8.311823e+002;1.028969e+002
8.331108e+002;1.026471e+002
8.350393e+002;1.023328e+002
8.369678e+002;1.019616e+002
8.388963e+002;1.015884e+002
8.408248e+002;1.013243e+002
8.427533e+002;1.012025e+002
8.446818e+002;1.012147e+002
8.466103e+002;1.013539e+002
8.485388e+002;1.015756e+002
8.504673e+002;1.018213e+002
8.523958e+002;1.020755e+002
8.543243e+002;1.023335e+002
8.562528e+002;1.025858e+002
8.581813e+002;1.028092e+002
8.601098e+002;1.029763e+002
8.620383e+002;1.030680e+002
8.639668e+002;1.030943e+002
8.658953e+002;1.030589e+002
8.678238e+002;1.029716e+002
8.697523e+002;1.028200e+002
8.716808e+002;1.026069e+002
8.736093e+002;1.023450e+002
8.755378e+002;1.020313e+002
8.774662e+002;1.016721e+002
8.793948e+002;1.012912e+002
8.813232e+002;1.009145e+002
8.832518e+002;1.005818e+002
8.851802e+002;1.003392e+002
8.871088e+002;1.002043e+002
8.890372e+002;1.001593e+002
8.909658e+002;1.002352e+002
8.928942e+002;1.004316e+002
8.948227e+002;1.007171e+002
8.967512e+002;1.010488e+002
8.986797e+002;1.014000e+002
9.006082e+002;1.017272e+002
9.025367e+002;1.020364e+002
9.044652e+002;1.023106e+002
9.063937e+002;1.025341e+002
9.083222e+002;1.027116e+002
9.102507e+002;1.028618e+002
9.121792e+002;1.029896e+002
9.141077e+002;1.031019e+002
9.160362e+002;1.031947e+002
9.179647e+002;1.032687e+002
9.198932e+002;1.033382e+002
9.218217e+002;1.034119e+002
9.237502e+002;1.034725e+002
9.256786e+002;1.035356e+002
9.276072e+002;1.035874e+002
9.295356e+002;1.036236e+002
9.314642e+002;1.036591e+002
9.333926e+002;1.036808e+002
9.353212e+002;1.036920e+002
9.372496e+002;1.037163e+002
9.391782e+002;1.037257e+002
9.411066e+002;1.037172e+002
9.430352e+002;1.037207e+002
9.449636e+002;1.037238e+002
9.468922e+002;1.037305e+002
9.488206e+002;1.037374e+002
9.507491e+002;1.037476e+002
9.526776e+002;1.037503e+002
9.546061e+002;1.037452e+002
9.565346e+002;1.037393e+002
9.584631e+002;1.037343e+002
9.603916e+002;1.037283e+002
9.623201e+002;1.037210e+002
9.642486e+002;1.037135e+002
9.661771e+002;1.037045e+002
9.681056e+002;1.036892e+002
9.700341e+002;1.036814e+002
9.719626e+002;1.036617e+002
9.738911e+002;1.036389e+002
9.758196e+002;1.036211e+002
9.777481e+002;1.036008e+002
9.796766e+002;1.035817e+002
9.816051e+002;1.035521e+002
9.835336e+002;1.035125e+002
9.854621e+002;1.034816e+002
9.873906e+002;1.034605e+002
9.893191e+002;1.034410e+002
9.912476e+002;1.034092e+002
9.931761e+002;1.033690e+002
9.951046e+002;1.033413e+002
9.970331e+002;1.033176e+002
9.989615e+002;1.033009e+002
1.000890e+003;1.032861e+002
1.002819e+003;1.032734e+002
1.004747e+003;1.032697e+002
1.006676e+003;1.032826e+002
1.008604e+003;1.033000e+002
1.010533e+003;1.033322e+002
1.012461e+003;1.033889e+002
1.014390e+003;1.034647e+002
1.016318e+003;1.035585e+002
1.018247e+003;1.036720e+002
1.020175e+003;1.038008e+002
1.022104e+003;1.039606e+002
1.024032e+003;1.041551e+002
1.025961e+003;1.043590e+002
1.027889e+003;1.045781e+002
1.029818e+003;1.048281e+002
1.031746e+003;1.050928e+002
1.033675e+003;1.053818e+002
1.035603e+003;1.056851e+002
1.037531e+003;1.060045e+002
1.039460e+003;1.063468e+002
1.041389e+003;1.067033e+002
1.043317e+003;1.070650e+002
1.045245e+003;1.074414e+002
1.047174e+003;1.078309e+002
1.049103e+003;1.082384e+002
1.051031e+003;1.086577e+002
1.052959e+003;1.090839e+002
1.054888e+003;1.095237e+002
1.056817e+003;1.099677e+002
1.058745e+003;1.104094e+002
1.060673e+003;1.108657e+002
1.062602e+003;1.113506e+002
1.064531e+003;1.118273e+002
1.066459e+003;1.122914e+002
1.068387e+003;1.127733e+002
1.070316e+003;1.132723e+002
1.072245e+003;1.137736e+002
1.074173e+003;1.142535e+002
1.076101e+003;1.147279e+002
1.078030e+003;1.152138e+002
1.079958e+003;1.156970e+002
1.081887e+003;1.161763e+002
1.083815e+003;1.166521e+002
1.085744e+003;1.171085e+002
1.087672e+003;1.175478e+002
1.089601e+003;1.179670e+002
1.091529e+003;1.183619e+002
1.093458e+003;1.187174e+002
1.095386e+003;1.190333e+002
1.097315e+003;1.192918e+002
1.099243e+003;1.194871e+002
1.101172e+003;1.196064e+002
1.103100e+003;1.196445e+002
1.105029e+003;1.195969e+002
1.106957e+003;1.194518e+002
1.108886e+003;1.192030e+002
1.110814e+003;1.188580e+002
1.112743e+003;1.184291e+002
1.114671e+003;1.179505e+002
1.116600e+003;1.174439e+002
1.118528e+003;1.169249e+002
1.120457e+003;1.164274e+002
1.122385e+003;1.159647e+002
1.124314e+003;1.155379e+002
1.126242e+003;1.151574e+002
1.128171e+003;1.148224e+002
1.130099e+003;1.145408e+002
1.132028e+003;1.143096e+002
1.133956e+003;1.141175e+002
1.135885e+003;1.139525e+002
1.137813e+003;1.138082e+002
1.139742e+003;1.136893e+002
1.141670e+003;1.135912e+002
1.143599e+003;1.135180e+002
1.145527e+003;1.134550e+002
1.147456e+003;1.133958e+002
1.149384e+003;1.133486e+002
1.151313e+003;1.133045e+002
1.153241e+003;1.132620e+002
1.155170e+003;1.132357e+002
1.157098e+003;1.132137e+002
1.159027e+003;1.131922e+002
1.160955e+003;1.131759e+002
1.162884e+003;1.131557e+002
1.164812e+003;1.131394e+002
1.166741e+003;1.131242e+002
1.168669e+003;1.131140e+002
1.170598e+003;1.131096e+002
1.172526e+003;1.131057e+002
1.174455e+003;1.130937e+002
1.176383e+003;1.130845e+002
1.178312e+003;1.130757e+002
1.180240e+003;1.130752e+002
1.182169e+003;1.130874e+002
1.184097e+003;1.130823e+002
1.186026e+003;1.130777e+002
1.187954e+003;1.130779e+002
1.189883e+003;1.130779e+002
1.191811e+003;1.130774e+002
1.193740e+003;1.130818e+002
1.195668e+003;1.130833e+002
1.197597e+003;1.130862e+002
1.199525e+003;1.130877e+002
1.201454e+003;1.130833e+002
1.203382e+003;1.130799e+002
1.205311e+003;1.130796e+002
1.207239e+003;1.130795e+002
1.209168e+003;1.130792e+002
1.211096e+003;1.130758e+002
1.213025e+003;1.130712e+002
1.214953e+003;1.130643e+002
1.216882e+003;1.130575e+002
1.218810e+003;1.130549e+002
1.220739e+003;1.130539e+002
1.222667e+003;1.130489e+002
1.224596e+003;1.130385e+002
1.226524e+003;1.130279e+002
1.228453e+003;1.130170e+002
1.230381e+003;1.129997e+002
1.232310e+003;1.129866e+002
1.234238e+003;1.129737e+002
1.236167e+003;1.129567e+002
1.238095e+003;1.129409e+002
1.240024e+003;1.129172e+002
1.241952e+003;1.128922e+002
1.243881e+003;1.128693e+002
1.245809e+003;1.128466e+002
1.247738e+003;1.128239e+002
1.249666e+003;1.127951e+002
1.251595e+003;1.127639e+002
1.253523e+003;1.127318e+002
1.255452e+003;1.127013e+002
1.257380e+003;1.126742e+002
1.259309e+003;1.126536e+002
1.261237e+003;1.126390e+002
1.263166e+003;1.126295e+002
1.265094e+003;1.126249e+002
1.267023e+003;1.126235e+002
1.268951e+003;1.126265e+002
1.270880e+003;1.126399e+002
1.272808e+003;1.126548e+002
1.274737e+003;1.126643e+002
1.276665e+003;1.126724e+002
1.278594e+003;1.126819e+002
1.280522e+003;1.126902e+002
1.282451e+003;1.127030e+002
1.284379e+003;1.127182e+002
1.286308e+003;1.127287e+002
1.288236e+003;1.127387e+002
1.290165e+003;1.127462e+002
1.292093e+003;1.127511e+002
1.294022e+003;1.127640e+002
1.295950e+003;1.127773e+002
1.297879e+003;1.127926e+002
1.299807e+003;1.128083e+002
1.301736e+003;1.128167e+002
1.303664e+003;1.128254e+002
1.305593e+003;1.128321e+002
1.307521e+003;1.128383e+002
1.309450e+003;1.128564e+002
1.311378e+003;1.128743e+002
1.313307e+003;1.128830e+002
1.315235e+003;1.128921e+002
1.317164e+003;1.129016e+002
1.319092e+003;1.129128e+002
1.321021e+003;1.129267e+002
1.322949e+003;1.129393e+002
1.324878e+003;1.129536e+002
1.326806e+003;1.129730e+002
1.328735e+003;1.129869e+002
1.330663e+003;1.129954e+002
1.332592e+003;1.130070e+002
1.334520e+003;1.130196e+002
1.336449e+003;1.130375e+002
1.338377e+003;1.130570e+002
1.340306e+003;1.130708e+002
1.342234e+003;1.130835e+002
1.344163e+003;1.130986e+002
1.346091e+003;1.131133e+002
1.348020e+003;1.131324e+002
1.349948e+003;1.131531e+002
1.351877e+003;1.131712e+002
1.353805e+003;1.131899e+002
1.355734e+003;1.132050e+002
1.357662e+003;1.132189e+002
1.359591e+003;1.132425e+002
1.361519e+003;1.132610e+002
1.363448e+003;1.132751e+002
1.365376e+003;1.132963e+002
1.367305e+003;1.133112e+002
1.369233e+003;1.133244e+002
1.371161e+003;1.133453e+002
1.373090e+003;1.133635e+002
1.375019e+003;1.133845e+002
1.376947e+003;1.134055e+002
1.378875e+003;1.134174e+002
1.380804e+003;1.134318e+002
1.382733e+003;1.134511e+002
1.384661e+003;1.134656e+002
1.386589e+003;1.134843e+002
1.388518e+003;1.135061e+002
1.390447e+003;1.135240e+002
1.392375e+003;1.135387e+002
1.394303e+003;1.135513e+002
1.396232e+003;1.135672e+002
1.398161e+003;1.135933e+002
1.400089e+003;1.136111e+002
1.402017e+003;1.136275e+002
1.403946e+003;1.136496e+002
1.405875e+003;1.136645e+002
1.407803e+003;1.136777e+002
1.409731e+003;1.137011e+002
1.411660e+003;1.137152e+002
1.413589e+003;1.137340e+002
1.415517e+003;1.137561e+002
1.417445e+003;1.137660e+002
1.419374e+003;1.137783e+002
1.421302e+003;1.138076e+002
1.423231e+003;1.138296e+002
1.425159e+003;1.138517e+002
1.427088e+003;1.138702e+002
1.429016e+003;1.138842e+002
1.430945e+003;1.139052e+002
1.432873e+003;1.139265e+002
1.434802e+003;1.139343e+002
1.436730e+003;1.139512e+002
1.438659e+003;1.139839e+002
1.440587e+003;1.140075e+002
1.442516e+003;1.140273e+002
1.444444e+003;1.140401e+002
1.446373e+003;1.140489e+002
1.448301e+003;1.140674e+002
1.450230e+003;1.140872e+002
1.452158e+003;1.141062e+002
1.454087e+003;1.141213e+002
1.456015e+003;1.141305e+002
1.457944e+003;1.141398e+002
1.459872e+003;1.141539e+002
1.461801e+003;1.141688e+002
1.463729e+003;1.141861e+002
1.465658e+003;1.142003e+002
1.467586e+003;1.142096e+002
1.469515e+003;1.142206e+002
1.471443e+003;1.142256e+002
1.473372e+003;1.142414e+002
1.475300e+003;1.142658e+002
1.477229e+003;1.142821e+002
1.479157e+003;1.142938e+002
1.481086e+003;1.143079e+002
1.483014e+003;1.143199e+002
1.484943e+003;1.143294e+002
1.486871e+003;1.143460e+002
1.488800e+003;1.143595e+002
1.490728e+003;1.143759e+002
1.492657e+003;1.143963e+002
1.494585e+003;1.144063e+002
1.496514e+003;1.144145e+002
1.498442e+003;1.144342e+002
1.500371e+003;1.144481e+002
1.502299e+003;1.144655e+002
1.504228e+003;1.144722e+002
1.506156e+003;1.144795e+002
1.508085e+003;1.145023e+002
1.510013e+003;1.145234e+002
1.511942e+003;1.145389e+002
1.513870e+003;1.145552e+002
1.515799e+003;1.145714e+002
1.517727e+003;1.145879e+002
1.519656e+003;1.145977e+002
1.521584e+003;1.146007e+002
1.523513e+003;1.146160e+002
1.525441e+003;1.146382e+002
1.527370e+003;1.146581e+002
1.529298e+003;1.146754e+002
1.531227e+003;1.146899e+002
1.533155e+003;1.146961e+002
1.535084e+003;1.147089e+002
1.537012e+003;1.147201e+002
1.538941e+003;1.147271e+002
1.540869e+003;1.147517e+002
1.542798e+003;1.147766e+002
1.544726e+003;1.147865e+002
1.546655e+003;1.147965e+002
1.548583e+003;1.148083e+002
1.550512e+003;1.148205e+002
1.552440e+003;1.148372e+002
1.554369e+003;1.148468e+002
1.556297e+003;1.148494e+002
1.558226e+003;1.148512e+002
1.560154e+003;1.148618e+002
1.562083e+003;1.148912e+002
1.564011e+003;1.149205e+002
1.565940e+003;1.149326e+002
1.567868e+003;1.149421e+002
1.569797e+003;1.149601e+002
1.571725e+003;1.149686e+002
1.573654e+003;1.149751e+002
1.575582e+003;1.149896e+002
1.577511e+003;1.150048e+002
1.579439e+003;1.150226e+002
1.581368e+003;1.150387e+002
1.583296e+003;1.150470e+002
1.585225e+003;1.150554e+002
1.587153e+003;1.150700e+002
1.589082e+003;1.150832e+002
1.591010e+003;1.151026e+002
1.592939e+003;1.151166e+002
1.594867e+003;1.151248e+002
1.596796e+003;1.151372e+002
1.598724e+003;1.151481e+002
1.600653e+003;1.151559e+002
1.602581e+003;1.151730e+002
1.604510e+003;1.151867e+002
1.606438e+003;1.151954e+002
1.608367e+003;1.152090e+002
1.610295e+003;1.152170e+002
1.612224e+003;1.152250e+002
1.614152e+003;1.152405e+002
1.616081e+003;1.152557e+002
1.618009e+003;1.152689e+002
1.619938e+003;1.152805e+002
1.621866e+003;1.152812e+002
1.623795e+003;1.152870e+002
1.625723e+003;1.153065e+002
1.627652e+003;1.153228e+002
1.629580e+003;1.153382e+002
1.631509e+003;1.153491e+002
1.633437e+003;1.153513e+002
1.635366e+003;1.153598e+002
1.637294e+003;1.153710e+002
1.639223e+003;1.153812e+002
1.641151e+003;1.154006e+002
1.643080e+003;1.154123e+002
1.645008e+003;1.154080e+002
1.646937e+003;1.154167e+002
1.648865e+003;1.154331e+002
1.650794e+003;1.154440e+002
1.652722e+003;1.154497e+002
1.654651e+003;1.154530e+002
1.656579e+003;1.154701e+002
1.658508e+003;1.154823e+002
1.660436e+003;1.154847e+002
1.662365e+003;1.154878e+002
1.664293e+003;1.155002e+002
1.666222e+003;1.155092e+002
1.668150e+003;1.155247e+002
1.670079e+003;1.155337e+002
1.672007e+003;1.155300e+002
1.673936e+003;1.155310e+002
1.675864e+003;1.155385e+002
1.677793e+003;1.155439e+002
1.679721e+003;1.155573e+002
1.681650e+003;1.155634e+002
1.683578e+003;1.155508e+002
1.685507e+003;1.155575e+002
1.687435e+003;1.155757e+002
1.689364e+003;1.155816e+002
1.691292e+003;1.155930e+002
1.693221e+003;1.155935e+002
1.695149e+003;1.155867e+002
1.697078e+003;1.155993e+002
1.699006e+003;1.156026e+002
1.700935e+003;1.156018e+002
1.702863e+003;1.156238e+002
1.704792e+003;1.156272e+002
1.706720e+003;1.156336e+002
1.708649e+003;1.156429e+002
1.710577e+003;1.156468e+002
1.712505e+003;1.156488e+002
1.714434e+003;1.156472e+002
1.716363e+003;1.156369e+002
1.718291e+003;1.156544e+002
1.720219e+003;1.156727e+002
1.722148e+003;1.156706e+002
1.724077e+003;1.156722e+002
1.726005e+003;1.156747e+002
1.727933e+003;1.156736e+002
1.729862e+003;1.156799e+002
1.731791e+003;1.156723e+002
1.733719e+003;1.156626e+002
1.735647e+003;1.156733e+002
1.737576e+003;1.156770e+002
1.739505e+003;1.156718e+002
1.741433e+003;1.156811e+002
1.743361e+003;1.156858e+002
1.745290e+003;1.156862e+002
1.747219e+003;1.156845e+002
1.749147e+003;1.156784e+002
1.751075e+003;1.156794e+002
1.753004e+003;1.156867e+002
1.754932e+003;1.156836e+002
1.756861e+003;1.156844e+002
1.758789e+003;1.156832e+002
1.760718e+003;1.156754e+002
1.762646e+003;1.156737e+002
1.764575e+003;1.156763e+002
1.766503e+003;1.156803e+002
1.768432e+003;1.156890e+002
1.770360e+003;1.156758e+002
1.772289e+003;1.156618e+002
1.774217e+003;1.156678e+002
1.776146e+003;1.156721e+002
1.778074e+003;1.156717e+002
1.780003e+003;1.156767e+002
1.781931e+003;1.156744e+002
1.783860e+003;1.156749e+002
1.785788e+003;1.156714e+002
1.787717e+003;1.156629e+002
1.789645e+003;1.156605e+002
1.791574e+003;1.156645e+002
1.793502e+003;1.156602e+002
1.795431e+003;1.156599e+002
1.797359e+003;1.156557e+002
1.799288e+003;1.156467e+002
1.801216e+003;1.156436e+002
1.803145e+003;1.156425e+002
1.805073e+003;1.156400e+002
1.807002e+003;1.156428e+002
1.808930e+003;1.156340e+002
1.810859e+003;1.156270e+002
1.812787e+003;1.156257e+002
1.814716e+003;1.156203e+002
1.816644e+003;1.156157e+002
1.818573e+003;1.156146e+002
1.820501e+003;1.156046e+002
1.822430e+003;1.155975e+002
1.824358e+003;1.155893e+002
1.826287e+003;1.155836e+002
1.828215e+003;1.155793e+002
1.830144e+003;1.155763e+002
1.832072e+003;1.155713e+002
1.834001e+003;1.155690e+002
1.835929e+003;1.155606e+002
1.837858e+003;1.155479e+002
1.839786e+003;1.155449e+002
1.841715e+003;1.155396e+002
1.843643e+003;1.155245e+002
1.845572e+003;1.155273e+002
1.847500e+003;1.155205e+002
1.849429e+003;1.155101e+002
1.851357e+003;1.155052e+002
1.853286e+003;1.154940e+002
1.855214e+003;1.154842e+002
1.857143e+003;1.154855e+002
1.859071e+003;1.154721e+002
1.861000e+003;1.154597e+002
1.862928e+003;1.154508e+002
1.864857e+003;1.154380e+002
1.866785e+003;1.154302e+002
1.868714e+003;1.154218e+002
1.870642e+003;1.154053e+002
1.872571e+003;1.153953e+002
1.874499e+003;1.153778e+002
1.876428e+003;1.153577e+002
1.878356e+003;1.153480e+002
1.880285e+003;1.153350e+002
1.882213e+003;1.153150e+002
1.884142e+003;1.153006e+002
1.886070e+003;1.152720e+002
1.887999e+003;1.152467e+002
1.889927e+003;1.152288e+002
1.891856e+003;1.152049e+002
1.893784e+003;1.151828e+002
1.895713e+003;1.151653e+002
1.897641e+003;1.151307e+002
1.899570e+003;1.151003e+002
1.901498e+003;1.150732e+002
1.903427e+003;1.150367e+002
1.905355e+003;1.150049e+002
1.907284e+003;1.149751e+002
1.909212e+003;1.149328e+002
1.911141e+003;1.148944e+002
1.913069e+003;1.148500e+002
1.914998e+003;1.148006e+002
1.916926e+003;1.147572e+002
1.918855e+003;1.147108e+002
1.920783e+003;1.146546e+002
1.922712e+003;1.146011e+002
1.924640e+003;1.145385e+002
1.926569e+003;1.144757e+002
1.928497e+003;1.144175e+002
1.930426e+003;1.143528e+002
1.932354e+003;1.142827e+002
1.934283e+003;1.142100e+002
1.936211e+003;1.141225e+002
1.938140e+003;1.140396e+002
1.940068e+003;1.139601e+002
1.941997e+003;1.138669e+002
1.943925e+003;1.137772e+002
1.945854e+003;1.136882e+002
1.947782e+003;1.135820e+002
1.949711e+003;1.134832e+002
1.951639e+003;1.133784e+002
1.953568e+003;1.132659e+002
1.955496e+003;1.131613e+002
1.957425e+003;1.130510e+002
1.959353e+003;1.129308e+002
1.961282e+003;1.128186e+002
1.963210e+003;1.126957e+002
1.965139e+003;1.125745e+002
1.967067e+003;1.124620e+002
1.968996e+003;1.123390e+002
1.970924e+003;1.122157e+002
1.972853e+003;1.120979e+002
1.974781e+003;1.119673e+002
1.976710e+003;1.118471e+002
1.978638e+003;1.117340e+002
1.980567e+003;1.116181e+002
1.982495e+003;1.115087e+002
1.984424e+003;1.113979e+002
1.986352e+003;1.112737e+002
1.988281e+003;1.111675e+002
1.990209e+003;1.110632e+002
1.992138e+003;1.109613e+002
1.994066e+003;1.108737e+002
1.995995e+003;1.107799e+002
1.997923e+003;1.106823e+002
1.999852e+003;1.105999e+002
2.001780e+003;1.105125e+002
2.003709e+003;1.104359e+002
2.005637e+003;1.103689e+002
2.007566e+003;1.102919e+002
2.009494e+003;1.102162e+002
2.011423e+003;1.101508e+002
2.013351e+003;1.100782e+002
2.015280e+003;1.100203e+002
2.017208e+003;1.099614e+002
2.019137e+003;1.098909e+002
2.021065e+003;1.098322e+002
2.022994e+003;1.097672e+002
2.024922e+003;1.096899e+002
2.026851e+003;1.096281e+002
2.028779e+003;1.095545e+002
2.030708e+003;1.094757e+002
2.032636e+003;1.094032e+002
2.034565e+003;1.093167e+002
2.036493e+003;1.092223e+002
2.038422e+003;1.091344e+002
2.040350e+003;1.090282e+002
2.042279e+003;1.089229e+002
2.044207e+003;1.088194e+002
2.046135e+003;1.086963e+002
2.048064e+003;1.085727e+002
2.049992e+003;1.084472e+002
2.051921e+003;1.083049e+002
2.053850e+003;1.081739e+002
2.055778e+003;1.080406e+002
2.057707e+003;1.078963e+002
2.059635e+003;1.077616e+002
2.061563e+003;1.076246e+002
2.063492e+003;1.074869e+002
2.065420e+003;1.073776e+002
2.067349e+003;1.072667e+002
2.069278e+003;1.071655e+002
2.071206e+003;1.070924e+002
2.073135e+003;1.070259e+002
2.075063e+003;1.069763e+002
2.076991e+003;1.069579e+002
2.078920e+003;1.069476e+002
2.080848e+003;1.069698e+002
2.082777e+003;1.070151e+002
2.084706e+003;1.070619e+002
2.086634e+003;1.071368e+002
2.088563e+003;1.072428e+002
2.090491e+003;1.073602e+002
2.092419e+003;1.075171e+002
2.094348e+003;1.076932e+002
2.096276e+003;1.078811e+002
2.098205e+003;1.081037e+002
2.100134e+003;1.083416e+002
2.102062e+003;1.085867e+002
2.103990e+003;1.088584e+002
2.105919e+003;1.091249e+002
2.107847e+003;1.093821e+002
2.109776e+003;1.096365e+002
2.111704e+003;1.098708e+002
2.113633e+003;1.100879e+002
2.115562e+003;1.103039e+002
2.117490e+003;1.104915e+002
2.119418e+003;1.106754e+002
2.121347e+003;1.108628e+002
2.123275e+003;1.110354e+002
2.125204e+003;1.112165e+002
2.127132e+003;1.114151e+002
2.129061e+003;1.115999e+002
2.130990e+003;1.117916e+002
2.132918e+003;1.119723e+002
2.134846e+003;1.121355e+002
2.136775e+003;1.122966e+002
2.138703e+003;1.124455e+002
2.140632e+003;1.125711e+002
2.142560e+003;1.126986e+002
2.144489e+003;1.128091e+002
2.146417e+003;1.129029e+002
2.148346e+003;1.129959e+002
2.150274e+003;1.130752e+002
2.152203e+003;1.131405e+002
2.154131e+003;1.132096e+002
2.156060e+003;1.132608e+002
2.157988e+003;1.133008e+002
2.159917e+003;1.133339e+002
2.161845e+003;1.133542e+002
2.163774e+003;1.133716e+002
2.165702e+003;1.133928e+002
2.167631e+003;1.133969e+002
2.169559e+003;1.134045e+002
2.171488e+003;1.134099e+002
2.173416e+003;1.133973e+002
2.175345e+003;1.133868e+002
2.177273e+003;1.133803e+002
2.179202e+003;1.133587e+002
2.181130e+003;1.133502e+002
2.183059e+003;1.133323e+002
2.184987e+003;1.132994e+002
2.186916e+003;1.132763e+002
2.188844e+003;1.132528e+002
2.190773e+003;1.132211e+002
2.192701e+003;1.132008e+002
2.194630e+003;1.131687e+002
2.196558e+003;1.131352e+002
2.198487e+003;1.131094e+002
2.200415e+003;1.130712e+002
2.202344e+003;1.130334e+002
2.204272e+003;1.130090e+002
2.206201e+003;1.129704e+002
2.208129e+003;1.129366e+002
2.210058e+003;1.129051e+002
2.211986e+003;1.128625e+002
2.213915e+003;1.128285e+002
2.215843e+003;1.127998e+002
2.217772e+003;1.127576e+002
2.219700e+003;1.127243e+002
2.221629e+003;1.126869e+002
2.223557e+003;1.126400e+002
2.225486e+003;1.126004e+002
2.227414e+003;1.125650e+002
2.229343e+003;1.125227e+002
2.231271e+003;1.124912e+002
2.233200e+003;1.124488e+002
2.235128e+003;1.124061e+002
2.237057e+003;1.123692e+002
2.238985e+003;1.123278e+002
2.240914e+003;1.122845e+002
2.242842e+003;1.122483e+002
2.244771e+003;1.122069e+002
2.246699e+003;1.121680e+002
2.248628e+003;1.121248e+002
2.250556e+003;1.120813e+002
2.252485e+003;1.120414e+002
2.254413e+003;1.120086e+002
2.256342e+003;1.119673e+002
2.258270e+003;1.119329e+002
2.260199e+003;1.118907e+002
2.262127e+003;1.118490e+002
2.264056e+003;1.118122e+002
2.265984e+003;1.117740e+002
2.267913e+003;1.117320e+002
2.269841e+003;1.116931e+002
2.271770e+003;1.116473e+002
2.273698e+003;1.116081e+002
2.275627e+003;1.115713e+002
2.277555e+003;1.115324e+002
2.279484e+003;1.114913e+002
2.281412e+003;1.114551e+002
2.283341e+003;1.114076e+002
2.285269e+003;1.113631e+002
2.287198e+003;1.113212e+002
2.289126e+003;1.112806e+002
2.291055e+003;1.112404e+002
2.292983e+003;1.111984e+002
2.294912e+003;1.111515e+002
2.296840e+003;1.111116e+002
2.298769e+003;1.110658e+002
2.300697e+003;1.110199e+002
2.302626e+003;1.109760e+002
2.304554e+003;1.109363e+002
2.306483e+003;1.108943e+002
2.308411e+003;1.108511e+002
2.310340e+003;1.108020e+002
2.312268e+003;1.107599e+002
2.314197e+003;1.107185e+002
2.316125e+003;1.106751e+002
2.318054e+003;1.106293e+002
2.319982e+003;1.105895e+002
2.321911e+003;1.105411e+002
2.323839e+003;1.104953e+002
2.325768e+003;1.104508e+002
2.327696e+003;1.104067e+002
2.329625e+003;1.103665e+002
2.331553e+003;1.103257e+002
2.333482e+003;1.102779e+002
2.335410e+003;1.102302e+002
2.337339e+003;1.101835e+002
2.339267e+003;1.101423e+002
2.341196e+003;1.100957e+002
2.343124e+003;1.100492e+002
2.345053e+003;1.100040e+002
2.346981e+003;1.099625e+002
2.348910e+003;1.099057e+002
2.350838e+003;1.098580e+002
2.352767e+003;1.098194e+002
2.354695e+003;1.097731e+002
2.356624e+003;1.097223e+002
2.358552e+003;1.096746e+002
2.360481e+003;1.096229e+002
2.362409e+003;1.095814e+002
2.364338e+003;1.095398e+002
2.366266e+003;1.094951e+002
2.368195e+003;1.094470e+002
2.370123e+003;1.093993e+002
2.372052e+003;1.093481e+002
2.373980e+003;1.093033e+002
2.375908e+003;1.092548e+002
2.377837e+003;1.092063e+002
2.379766e+003;1.091616e+002
2.381694e+003;1.091160e+002
2.383623e+003;1.090629e+002
2.385551e+003;1.090163e+002
2.387479e+003;1.089636e+002
2.389408e+003;1.089137e+002
2.391336e+003;1.088667e+002
2.393265e+003;1.088204e+002
2.395194e+003;1.087709e+002
2.397122e+003;1.087235e+002
2.399051e+003;1.086675e+002
2.400979e+003;1.086220e+002
2.402907e+003;1.085810e+002
2.404836e+003;1.085333e+002
2.406764e+003;1.084754e+002
2.408693e+003;1.084250e+002
2.410622e+003;1.083732e+002
2.412550e+003;1.083262e+002
2.414479e+003;1.082763e+002
2.416407e+003;1.082262e+002
2.418335e+003;1.081743e+002
2.420264e+003;1.081250e+002
2.422192e+003;1.080713e+002
2.424121e+003;1.080213e+002
2.426050e+003;1.079701e+002
2.427978e+003;1.079219e+002
2.429906e+003;1.078718e+002
2.431835e+003;1.078215e+002
2.433763e+003;1.077664e+002
2.435692e+003;1.077160e+002
2.437620e+003;1.076656e+002
2.439549e+003;1.076163e+002
2.441478e+003;1.075635e+002
2.443406e+003;1.075158e+002
2.445334e+003;1.074637e+002
2.447263e+003;1.074106e+002
2.449191e+003;1.073563e+002
2.451120e+003;1.073047e+002
2.453048e+003;1.072519e+002
2.454977e+003;1.072020e+002
2.456906e+003;1.071408e+002
2.458834e+003;1.070889e+002
2.460762e+003;1.070420e+002
2.462691e+003;1.069877e+002
2.464619e+003;1.069308e+002
2.466548e+003;1.068828e+002
2.468476e+003;1.068267e+002
2.470405e+003;1.067767e+002
2.472333e+003;1.067212e+002
2.474262e+003;1.066613e+002
2.476190e+003;1.066113e+002
2.478119e+003;1.065646e+002
2.480047e+003;1.065063e+002
2.481976e+003;1.064559e+002
2.483904e+003;1.064015e+002
2.485833e+003;1.063455e+002
2.487761e+003;1.062973e+002
2.489690e+003;1.062434e+002
2.491618e+003;1.061842e+002
2.493547e+003;1.061344e+002
2.495475e+003;1.060740e+002
2.497404e+003;1.060140e+002
2.499332e+003;1.059632e+002
2.501261e+003;1.059070e+002
2.503189e+003;1.058539e+002
2.505118e+003;1.058079e+002
2.507046e+003;1.057463e+002
2.508975e+003;1.056891e+002
2.510903e+003;1.056350e+002
2.512832e+003;1.055746e+002
2.514760e+003;1.055237e+002
2.516689e+003;1.054751e+002
2.518617e+003;1.054104e+002
2.520546e+003;1.053595e+002
2.522474e+003;1.053022e+002
2.524403e+003;1.052406e+002
2.526331e+003;1.051934e+002
2.528260e+003;1.051408e+002
2.530188e+003;1.050763e+002
2.532117e+003;1.050269e+002
2.534045e+003;1.049695e+002
2.535974e+003;1.049104e+002
2.537902e+003;1.048604e+002
2.539831e+003;1.048015e+002
2.541759e+003;1.047413e+002
2.543688e+003;1.046927e+002
2.545616e+003;1.046274e+002
2.547545e+003;1.045687e+002
2.549473e+003;1.045195e+002
2.551402e+003;1.044634e+002
2.553330e+003;1.044079e+002
2.555259e+003;1.043520e+002
2.557187e+003;1.042849e+002
2.559116e+003;1.042322e+002
2.561044e+003;1.041768e+002
2.562973e+003;1.041151e+002
2.564901e+003;1.040615e+002
2.566830e+003;1.040041e+002
2.568758e+003;1.039366e+002
2.570687e+003;1.038877e+002
2.572615e+003;1.038292e+002
2.574544e+003;1.037697e+002
2.576472e+003;1.037189e+002
2.578401e+003;1.036563e+002
2.580329e+003;1.035915e+002
2.582258e+003;1.035373e+002
2.584186e+003;1.034754e+002
2.586115e+003;1.034203e+002
2.588043e+003;1.033652e+002
2.589972e+003;1.032999e+002
2.591900e+003;1.032421e+002
2.593829e+003;1.031873e+002
2.595757e+003;1.031215e+002
2.597686e+003;1.030707e+002
2.599614e+003;1.030119e+002
2.601543e+003;1.029510e+002
2.603471e+003;1.028982e+002
2.605400e+003;1.028352e+002
2.607328e+003;1.027701e+002
2.609257e+003;1.027192e+002
2.611185e+003;1.026493e+002
2.613114e+003;1.025895e+002
2.615042e+003;1.025417e+002
2.616971e+003;1.024744e+002
2.618899e+003;1.024134e+002
2.620828e+003;1.023613e+002
2.622756e+003;1.022870e+002
2.624685e+003;1.022332e+002
2.626613e+003;1.021753e+002
2.628542e+003;1.021037e+002
2.630470e+003;1.020526e+002
2.632399e+003;1.019938e+002
2.634327e+003;1.019186e+002
2.636256e+003;1.018710e+002
2.638184e+003;1.018142e+002
2.640113e+003;1.017467e+002
2.642041e+003;1.016936e+002
2.643970e+003;1.016283e+002
2.645898e+003;1.015555e+002
2.647827e+003;1.015079e+002
2.649755e+003;1.014388e+002
2.651684e+003;1.013715e+002
2.653612e+003;1.013214e+002
2.655541e+003;1.012543e+002
2.657469e+003;1.011887e+002
2.659398e+003;1.011414e+002
2.661326e+003;1.010704e+002
2.663255e+003;1.010099e+002
2.665183e+003;1.009543e+002
2.667112e+003;1.008803e+002
2.669040e+003;1.008205e+002
2.670969e+003;1.007652e+002
2.672897e+003;1.006906e+002
2.674826e+003;1.006424e+002
2.676754e+003;1.005842e+002
2.678683e+003;1.005093e+002
2.680611e+003;1.004516e+002
2.682540e+003;1.003872e+002
2.684468e+003;1.003169e+002
2.686397e+003;1.002717e+002
2.688325e+003;1.002066e+002
2.690254e+003;1.001330e+002
2.692182e+003;1.000773e+002
2.694111e+003;1.000120e+002
2.696039e+003;9.994728e+001
2.697968e+003;9.989900e+001
2.699896e+003;9.982599e+001
2.701825e+003;9.976177e+001
2.703753e+003;9.970485e+001
2.705682e+003;9.963459e+001
2.707610e+003;9.957328e+001
2.709539e+003;9.951791e+001
2.711467e+003;9.944234e+001
2.713396e+003;9.938728e+001
2.715324e+003;9.932760e+001
2.717253e+003;9.925619e+001
2.719181e+003;9.920420e+001
2.721110e+003;9.914154e+001
2.723038e+003;9.907181e+001
2.724967e+003;9.902353e+001
2.726895e+003;9.895397e+001
2.728823e+003;9.888414e+001
2.730752e+003;9.882811e+001
2.732681e+003;9.875879e+001
2.734609e+003;9.869373e+001
2.736538e+003;9.864350e+001
2.738466e+003;9.856927e+001
2.740395e+003;9.850928e+001
2.742323e+003;9.845353e+001
2.744251e+003;9.837760e+001
2.746180e+003;9.831659e+001
2.748109e+003;9.825991e+001
2.750037e+003;9.818540e+001
2.751966e+003;9.813107e+001
2.753894e+003;9.806784e+001
2.755823e+003;9.799897e+001
2.757751e+003;9.794883e+001
2.759679e+003;9.788266e+001
2.761608e+003;9.780999e+001
2.763537e+003;9.776150e+001
2.765465e+003;9.768910e+001
2.767394e+003;9.762105e+001
2.769322e+003;9.757072e+001
2.771250e+003;9.749884e+001
2.773179e+003;9.743173e+001
2.775107e+003;9.738203e+001
2.777036e+003;9.730597e+001
2.778965e+003;9.724488e+001
2.780893e+003;9.718829e+001
2.782822e+003;9.711447e+001
2.784750e+003;9.705896e+001
2.786678e+003;9.700065e+001
2.788607e+003;9.692083e+001
2.790535e+003;9.687199e+001
2.792464e+003;9.681020e+001
2.794393e+003;9.672967e+001
2.796321e+003;9.667719e+001
2.798250e+003;9.661416e+001
2.800178e+003;9.653955e+001
2.802106e+003;9.649084e+001
2.804035e+003;9.641967e+001
2.805963e+003;9.635075e+001
2.807892e+003;9.629773e+001
2.809821e+003;9.622671e+001
2.811749e+003;9.616195e+001
2.813677e+003;9.610889e+001
2.815606e+003;9.602734e+001
2.817534e+003;9.596344e+001
2.819463e+003;9.591325e+001
2.821391e+003;9.583499e+001
2.823320e+003;9.577307e+001
2.825249e+003;9.571878e+001
2.827177e+003;9.563625e+001
2.829105e+003;9.558152e+001
2.831034e+003;9.552216e+001
2.832962e+003;9.544741e+001
2.834891e+003;9.539179e+001
2.836819e+003;9.532301e+001
2.838748e+003;9.524483e+001
2.840677e+003;9.519969e+001
2.842605e+003;9.513328e+001
2.844533e+003;9.506347e+001
2.846462e+003;9.501053e+001
2.848390e+003;9.493362e+001
2.850319e+003;9.486419e+001
2.852247e+003;9.481246e+001
2.854176e+003;9.473262e+001
2.856104e+003;9.467109e+001
2.858033e+003;9.461696e+001
2.859961e+003;9.454008e+001
2.861890e+003;9.447937e+001
2.863818e+003;9.442022e+001
2.865747e+003;9.433907e+001
2.867675e+003;9.429038e+001
2.869604e+003;9.422852e+001
2.871532e+003;9.414942e+001
2.873461e+003;9.409693e+001
2.875389e+003;9.403432e+001
2.877318e+003;9.395494e+001
2.879246e+003;9.389943e+001
2.881175e+003;9.382536e+001
2.883103e+003;9.375800e+001
2.885032e+003;9.370946e+001
2.886960e+003;9.363448e+001
2.888889e+003;9.356421e+001
2.890817e+003;9.351521e+001
2.892746e+003;9.343443e+001
2.894674e+003;9.337053e+001
2.896603e+003;9.331473e+001
2.898531e+003;9.323502e+001
2.900460e+003;9.317731e+001
2.902388e+003;9.311978e+001
2.904317e+003;9.303724e+001
2.906245e+003;9.298180e+001
2.908174e+003;9.291529e+001
2.910102e+003;9.283752e+001
2.912031e+003;9.278590e+001
2.913959e+003;9.271705e+001
2.915888e+003;9.263954e+001
2.917816e+003;9.259071e+001
2.919745e+003;9.251635e+001
2.921673e+003;9.244452e+001
2.923602e+003;9.239239e+001
2.925530e+003;9.231836e+001
2.927459e+003;9.225168e+001
2.929387e+003;9.220110e+001
2.931316e+003;9.211913e+001
2.933244e+003;9.205785e+001
2.935173e+003;9.200239e+001
2.937101e+003;9.191950e+001
2.939030e+003;9.186391e+001
2.940958e+003;9.181177e+001
2.942887e+003;9.172662e+001
2.944815e+003;9.167393e+001
2.946744e+003;9.161262e+001
2.948672e+003;9.153055e+001
2.950601e+003;9.147852e+001
2.952529e+003;9.141482e+001
2.954458e+003;9.133356e+001
2.956386e+003;9.128519e+001
2.958315e+003;9.121140e+001
2.960243e+003;9.113631e+001
2.962172e+003;9.108838e+001
2.964100e+003;9.101544e+001
2.966029e+003;9.094649e+001
2.967957e+003;9.089974e+001
2.969886e+003;9.081970e+001
2.971814e+003;9.075811e+001
2.973743e+003;9.070528e+001
2.975671e+003;9.062348e+001
2.977600e+003;9.056365e+001
2.979528e+003;9.051105e+001
2.981457e+003;9.042783e+001
2.983385e+003;9.037251e+001
2.985314e+003;9.030719e+001
2.987242e+003;9.022929e+001
2.989171e+003;9.018379e+001
2.991099e+003;9.012062e+001
2.993028e+003;9.004036e+001
2.994956e+003;8.998778e+001
2.996885e+003;8.991582e+001
2.998813e+003;8.984949e+001
3.000742e+003;8.980038e+001
3.002670e+003;8.972215e+001
3.004599e+003;8.965223e+001
3.006527e+003;8.960638e+001
3.008456e+003;8.953123e+001
3.010384e+003;8.946861e+001
3.012313e+003;8.941054e+001
3.014241e+003;8.933118e+001
3.016170e+003;8.927768e+001
3.018098e+003;8.921709e+001
3.020027e+003;8.913635e+001
3.021955e+003;8.908849e+001
3.023884e+003;8.902436e+001
3.025812e+003;8.894534e+001
3.027741e+003;8.889423e+001
3.029669e+003;8.882662e+001
3.031598e+003;8.875224e+001
3.033526e+003;8.870704e+001
3.035455e+003;8.863350e+001
3.037383e+003;8.856565e+001
3.039312e+003;8.851936e+001
3.041240e+003;8.843788e+001
3.043169e+003;8.836745e+001
3.045097e+003;8.831908e+001
3.047026e+003;8.823896e+001
3.048954e+003;8.818687e+001
3.050883e+003;8.813498e+001
3.052811e+003;8.805057e+001
3.054740e+003;8.799267e+001
3.056668e+003;8.793781e+001
3.058597e+003;8.785583e+001
3.060525e+003;8.780690e+001
3.062454e+003;8.774263e+001
3.064382e+003;8.766130e+001
3.066311e+003;8.761364e+001
3.068239e+003;8.754426e+001
3.070167e+003;8.746416e+001
3.072096e+003;8.742355e+001
3.074025e+003;8.735307e+001
3.075953e+003;8.728075e+001
3.077882e+003;8.723649e+001
3.079810e+003;8.716250e+001
3.081739e+003;8.709208e+001
3.083667e+003;8.704149e+001
3.085595e+003;8.696091e+001
3.087524e+003;8.690459e+001
3.089453e+003;8.685594e+001
3.091381e+003;8.677681e+001
3.093310e+003;8.671658e+001
3.095238e+003;8.666042e+001
3.097167e+003;8.658546e+001
3.099095e+003;8.653828e+001
3.101023e+003;8.647065e+001
3.102952e+003;8.638989e+001
3.104881e+003;8.634141e+001
3.106809e+003;8.627755e+001
3.108738e+003;8.620518e+001
3.110666e+003;8.615575e+001
3.112594e+003;8.608145e+001
3.114523e+003;8.601954e+001
3.116451e+003;8.597195e+001
3.118380e+003;8.589307e+001
3.120309e+003;8.582767e+001
3.122237e+003;8.577943e+001
3.124166e+003;8.570085e+001
3.126094e+003;8.564352e+001
3.128022e+003;8.558839e+001
3.129951e+003;8.550934e+001
3.131879e+003;8.545690e+001
3.133808e+003;8.540321e+001
3.135737e+003;8.532320e+001
3.137665e+003;8.527492e+001
3.139594e+003;8.521055e+001
3.141522e+003;8.514118e+001
3.143450e+003;8.509349e+001
3.145379e+003;8.502294e+001
3.147307e+003;8.495339e+001
3.149236e+003;8.490989e+001
3.151165e+003;8.483210e+001
3.153093e+003;8.476749e+001
3.155021e+003;8.472147e+001
3.156950e+003;8.464427e+001
3.158878e+003;8.458452e+001
3.160807e+003;8.453956e+001
3.162735e+003;8.445684e+001
3.164664e+003;8.440174e+001
3.166593e+003;8.435021e+001
3.168521e+003;8.426824e+001
3.170449e+003;8.421722e+001
3.172378e+003;8.416459e+001
3.174306e+003;8.408262e+001
3.176235e+003;8.403444e+001
3.178163e+003;8.397331e+001
3.180092e+003;8.389846e+001
3.182021e+003;8.385284e+001
3.183949e+003;8.378706e+001
3.185877e+003;8.371341e+001
3.187806e+003;8.367049e+001
3.189734e+003;8.359842e+001
3.191663e+003;8.353258e+001
3.193591e+003;8.348904e+001
3.195520e+003;8.341636e+001
3.197448e+003;8.335245e+001
3.199377e+003;8.330186e+001
3.201305e+003;8.322550e+001
3.203234e+003;8.317091e+001
3.205162e+003;8.312113e+001
3.207091e+003;8.305086e+001
3.209019e+003;8.299612e+001
3.210948e+003;8.293887e+001
3.212876e+003;8.286376e+001
3.214805e+003;8.281161e+001
3.216733e+003;8.274946e+001
3.218662e+003;8.268448e+001
3.220590e+003;8.263509e+001
3.222519e+003;8.256573e+001
3.224447e+003;8.249853e+001
3.226376e+003;8.245381e+001
3.228304e+003;8.238055e+001
3.230233e+003;8.232045e+001
3.232161e+003;8.226897e+001
3.234090e+003;8.219476e+001
3.236018e+003;8.214323e+001
3.237947e+003;8.209549e+001
3.239875e+003;8.202087e+001
3.241804e+003;8.197183e+001
3.243732e+003;8.191634e+001
3.245661e+003;8.183788e+001
3.247589e+003;8.178645e+001
3.249518e+003;8.172797e+001
3.251446e+003;8.165546e+001
3.253375e+003;8.161437e+001
3.255303e+003;8.154835e+001
3.257232e+003;8.148049e+001
3.259160e+003;8.143883e+001
3.261089e+003;8.137141e+001
3.263017e+003;8.130013e+001
3.264946e+003;8.126326e+001
3.266874e+003;8.119529e+001
3.268803e+003;8.113097e+001
3.270731e+003;8.108884e+001
3.272660e+003;8.101731e+001
3.274588e+003;8.095441e+001
3.276517e+003;8.090742e+001
3.278445e+003;8.083309e+001
3.280374e+003;8.077832e+001
3.282302e+003;8.072721e+001
3.284231e+003;8.065534e+001
3.286159e+003;8.060393e+001
3.288088e+003;8.054990e+001
3.290016e+003;8.047755e+001
3.291945e+003;8.043277e+001
3.293873e+003;8.037754e+001
3.295802e+003;8.030965e+001
3.297730e+003;8.026054e+001
3.299659e+003;8.020212e+001
3.301587e+003;8.013280e+001
3.303516e+003;8.008299e+001
3.305444e+003;8.001974e+001
3.307373e+003;7.996420e+001
3.309301e+003;7.991703e+001
3.311230e+003;7.985034e+001
3.313158e+003;7.979335e+001
3.315087e+003;7.974301e+001
3.317015e+003;7.967468e+001
3.318944e+003;7.962196e+001
3.320872e+003;7.956103e+001
3.322801e+003;7.949168e+001
3.324729e+003;7.944523e+001
3.326658e+003;7.939095e+001
3.328586e+003;7.932616e+001
3.330515e+003;7.928160e+001
3.332443e+003;7.921967e+001
3.334372e+003;7.916029e+001
3.336300e+003;7.911386e+001
3.338229e+003;7.904794e+001
3.340157e+003;7.899324e+001
3.342086e+003;7.895423e+001
3.344014e+003;7.888168e+001
3.345943e+003;7.882669e+001
3.347871e+003;7.878355e+001
3.349800e+003;7.871588e+001
3.351728e+003;7.866132e+001
3.353657e+003;7.861137e+001
3.355585e+003;7.853857e+001
3.357514e+003;7.849506e+001
3.359442e+003;7.844508e+001
3.361371e+003;7.837285e+001
3.363299e+003;7.832280e+001
3.365228e+003;7.827136e+001
3.367156e+003;7.820368e+001
3.369085e+003;7.816082e+001
3.371013e+003;7.810449e+001
3.372942e+003;7.804182e+001
3.374870e+003;7.799787e+001
3.376799e+003;7.793420e+001
3.378727e+003;7.786744e+001
3.380656e+003;7.782661e+001
3.382584e+003;7.776719e+001
3.384513e+003;7.770951e+001
3.386441e+003;7.766676e+001
3.388370e+003;7.760820e+001
3.390298e+003;7.754887e+001
3.392227e+003;7.749688e+001
3.394155e+003;7.743422e+001
3.396083e+003;7.738374e+001
3.398012e+003;7.733366e+001
3.399941e+003;7.727527e+001
3.401869e+003;7.722584e+001
3.403798e+003;7.717183e+001
3.405726e+003;7.711071e+001
3.407655e+003;7.706457e+001
3.409583e+003;7.700951e+001
3.411511e+003;7.695371e+001
3.413440e+003;7.690565e+001
3.415369e+003;7.684990e+001
3.417297e+003;7.679365e+001
3.419226e+003;7.674330e+001
3.421154e+003;7.668479e+001
3.423083e+003;7.663627e+001
3.425011e+003;7.658145e+001
3.426939e+003;7.651922e+001
3.428868e+003;7.647393e+001
3.430797e+003;7.642216e+001
3.432725e+003;7.635943e+001
3.434654e+003;7.631385e+001
3.436582e+003;7.626014e+001
3.438510e+003;7.620442e+001
3.440439e+003;7.615807e+001
3.442367e+003;7.609815e+001
3.444296e+003;7.603690e+001
3.446225e+003;7.599660e+001
3.448153e+003;7.594395e+001
3.450082e+003;7.588300e+001
3.452010e+003;7.583911e+001
3.453938e+003;7.578345e+001
3.455867e+003;7.572645e+001
3.457795e+003;7.567983e+001
3.459724e+003;7.561977e+001
3.461653e+003;7.557110e+001
3.463581e+003;7.552831e+001
3.465510e+003;7.546700e+001
3.467438e+003;7.541195e+001
3.469366e+003;7.536897e+001
3.471295e+003;7.530995e+001
3.473223e+003;7.525834e+001
3.475152e+003;7.520991e+001
3.477081e+003;7.515273e+001
3.479009e+003;7.510333e+001
3.480938e+003;7.505981e+001
3.482866e+003;7.500347e+001
3.484794e+003;7.494991e+001
3.486723e+003;7.489993e+001
3.488651e+003;7.485326e+001
3.490580e+003;7.480093e+001
3.492509e+003;7.474762e+001
3.494437e+003;7.469469e+001
3.496365e+003;7.464319e+001
3.498294e+003;7.459167e+001
3.500222e+003;7.453914e+001
3.502151e+003;7.448383e+001
3.504079e+003;7.443665e+001
3.506008e+003;7.438517e+001
3.507937e+003;7.433412e+001
3.509865e+003;7.428706e+001
3.511793e+003;7.423446e+001
3.513722e+003;7.418108e+001
3.515650e+003;7.413309e+001
3.517579e+003;7.407964e+001
3.519507e+003;7.403185e+001
3.521436e+003;7.398849e+001
3.523365e+003;7.394044e+001
3.525293e+003;7.388767e+001
3.527221e+003;7.384032e+001
3.529150e+003;7.378814e+001
3.531078e+003;7.373184e+001
3.533007e+003;7.368283e+001
3.534935e+003;7.363954e+001
3.536864e+003;7.358739e+001
3.538792e+003;7.353886e+001
3.540721e+003;7.348756e+001
3.542649e+003;7.343797e+001
3.544578e+003;7.339178e+001
3.546506e+003;7.334869e+001
3.548435e+003;7.329893e+001
3.550363e+003;7.324833e+001
3.552292e+003;7.319755e+001
3.554220e+003;7.314550e+001
3.556149e+003;7.310155e+001
3.558077e+003;7.306410e+001
3.560006e+003;7.300771e+001
3.561934e+003;7.295646e+001
3.563863e+003;7.291558e+001
3.565791e+003;7.286094e+001
3.567720e+003;7.280288e+001
3.569648e+003;7.276297e+001
3.571577e+003;7.271263e+001
3.573505e+003;7.266384e+001
3.575434e+003;7.262397e+001
3.577362e+003;7.257217e+001
3.579291e+003;7.253201e+001
3.581219e+003;7.249368e+001
3.583148e+003;7.242992e+001
3.585076e+003;7.237949e+001
3.587005e+003;7.234113e+001
3.588933e+003;7.228367e+001
3.590862e+003;7.223822e+001
3.592790e+003;7.219694e+001
3.594719e+003;7.214314e+001
3.596647e+003;7.211283e+001
3.598576e+003;7.207471e+001
3.600504e+003;7.201482e+001
3.602433e+003;7.196883e+001
3.604361e+003;7.192660e+001
3.606290e+003;7.187250e+001
3.608218e+003;7.183272e+001
3.610147e+003;7.177885e+001
3.612075e+003;7.172493e+001
3.614004e+003;7.168964e+001
3.615932e+003;7.164074e+001
3.617861e+003;7.158620e+001
3.619789e+003;7.155457e+001
3.621718e+003;7.150801e+001
3.623646e+003;7.146322e+001
3.625575e+003;7.142078e+001
3.627503e+003;7.136633e+001
3.629432e+003;7.132866e+001
3.631360e+003;7.128915e+001
3.633289e+003;7.123085e+001
3.635217e+003;7.119621e+001
3.637146e+003;7.115142e+001
3.639074e+003;7.109592e+001
3.641003e+003;7.106037e+001
3.642931e+003;7.101579e+001
3.644860e+003;7.096956e+001
3.646788e+003;7.093570e+001
3.648717e+003;7.087900e+001
3.650645e+003;7.083002e+001
3.652574e+003;7.080135e+001
3.654502e+003;7.074117e+001
3.656431e+003;7.069273e+001
3.658359e+003;7.066354e+001
3.660288e+003;7.060889e+001
3.662216e+003;7.057568e+001
3.664145e+003;7.054665e+001
3.666073e+003;7.048148e+001
3.668002e+003;7.043752e+001
3.669930e+003;7.039619e+001
3.671859e+003;7.033803e+001
3.673787e+003;7.031446e+001
3.675716e+003;7.027129e+001
3.677644e+003;7.021568e+001
3.679573e+003;7.019217e+001
3.681501e+003;7.014384e+001
3.683430e+003;7.008855e+001
3.685358e+003;7.006496e+001
3.687287e+003;7.000889e+001
3.689215e+003;6.996298e+001
3.691144e+003;6.993761e+001
3.693072e+003;6.987924e+001
3.695001e+003;6.983923e+001
3.696929e+003;6.981631e+001
3.698858e+003;6.975227e+001
3.700786e+003;6.971647e+001
3.702715e+003;6.968642e+001
3.704643e+003;6.962426e+001
3.706572e+003;6.960050e+001
3.708500e+003;6.956001e+001
3.710429e+003;6.949191e+001
3.712357e+003;6.947646e+001
3.714286e+003;6.943986e+001
3.716214e+003;6.937525e+001
3.718143e+003;6.935251e+001
3.720071e+003;6.930457e+001
3.722000e+003;6.925064e+001
3.723928e+003;6.923415e+001
3.725857e+003;6.917610e+001
3.727785e+003;6.913178e+001
3.729714e+003;6.911078e+001
3.731642e+003;6.904289e+001
3.733571e+003;6.900407e+001
3.735499e+003;6.898595e+001
3.737427e+003;6.892526e+001
3.739356e+003;6.889500e+001
3.741285e+003;6.886538e+001
3.743213e+003;6.879607e+001
3.745142e+003;6.877074e+001
3.747070e+003;6.873653e+001
3.748999e+003;6.866462e+001
3.750927e+003;6.865070e+001
3.752855e+003;6.861489e+001
3.754784e+003;6.856483e+001
3.756713e+003;6.855368e+001
3.758641e+003;6.850348e+001
3.760570e+003;6.845366e+001
3.762498e+003;6.844514e+001
3.764427e+003;6.838157e+001
3.766355e+003;6.833686e+001
3.768283e+003;6.831799e+001
3.770212e+003;6.825640e+001
3.772141e+003;6.822492e+001
3.774069e+003;6.819835e+001
3.775998e+003;6.813105e+001
3.777926e+003;6.811846e+001
3.779854e+003;6.808909e+001
3.781783e+003;6.801377e+001
3.783711e+003;6.799656e+001
3.785640e+003;6.796062e+001
3.787569e+003;6.789911e+001
3.789497e+003;6.789414e+001
3.791426e+003;6.784228e+001
3.793354e+003;6.778609e+001
3.795282e+003;6.778469e+001
3.797211e+003;6.772192e+001
3.799139e+003;6.767410e+001
3.801068e+003;6.767300e+001
3.802997e+003;6.760583e+001
3.804925e+003;6.756966e+001
3.806854e+003;6.756053e+001
3.808782e+003;6.748685e+001
3.810710e+003;6.746550e+001
3.812639e+003;6.745132e+001
3.814567e+003;6.736495e+001
3.816496e+003;6.735204e+001
3.818425e+003;6.733474e+001
3.820353e+003;6.725552e+001
3.822281e+003;6.725141e+001
3.824210e+003;6.721904e+001
3.826138e+003;6.714697e+001
3.828067e+003;6.715336e+001
3.829995e+003;6.710631e+001
3.831924e+003;6.704227e+001
3.833853e+003;6.704441e+001
3.835781e+003;6.698264e+001
3.837709e+003;6.693566e+001
3.839638e+003;6.693694e+001
3.841566e+003;6.686327e+001
3.843495e+003;6.683058e+001
3.845423e+003;6.682642e+001
3.847352e+003;6.675817e+001
3.849281e+003;6.674036e+001
3.851209e+003;6.671626e+001
3.853137e+003;6.663548e+001
3.855066e+003;6.663474e+001
3.856994e+003;6.660722e+001
3.858923e+003;6.653936e+001
3.860851e+003;6.654768e+001
3.862780e+003;6.650123e+001
3.864708e+003;6.643871e+001
3.866637e+003;6.645220e+001
3.868565e+003;6.639523e+001
3.870494e+003;6.634485e+001
3.872422e+003;6.634934e+001
3.874351e+003;6.626703e+001
3.876279e+003;6.623244e+001
3.878208e+003;6.623894e+001
3.880136e+003;6.615534e+001
3.882065e+003;6.614188e+001
3.883993e+003;6.613725e+001
3.885922e+003;6.605263e+001
3.887850e+003;6.606008e+001
3.889779e+003;6.604424e+001
3.891707e+003;6.595567e+001
3.893636e+003;6.596408e+001
3.895564e+003;6.592821e+001
3.897493e+003;6.584377e+001
3.899421e+003;6.586169e+001
3.901350e+003;6.581812e+001
3.903278e+003;6.575278e+001
3.905207e+003;6.577073e+001
3.907135e+003;6.570211e+001
3.909064e+003;6.565330e+001
3.910992e+003;6.567925e+001
3.912921e+003;6.560581e+001
3.914849e+003;6.556056e+001
3.916778e+003;6.556956e+001
3.918706e+003;6.549005e+001
3.920635e+003;6.547721e+001
3.922563e+003;6.548103e+001
3.924492e+003;6.539190e+001
3.926420e+003;6.538882e+001
3.928349e+003;6.537370e+001
3.930277e+003;6.529367e+001
3.932206e+003;6.530492e+001
3.934134e+003;6.526401e+001
3.936063e+003;6.519144e+001
3.937991e+003;6.521308e+001
3.939920e+003;6.516238e+001
3.941848e+003;6.510313e+001
3.943777e+003;6.511687e+001
3.945705e+003;6.505433e+001
3.947634e+003;6.502464e+001
3.949562e+003;6.503892e+001
3.951491e+003;6.494973e+001
3.953419e+003;6.492856e+001
3.955348e+003;6.493434e+001
3.957276e+003;6.485210e+001
3.959205e+003;6.485551e+001
3.961133e+003;6.483842e+001
3.963062e+003;6.474493e+001
3.964990e+003;6.476810e+001
3.966919e+003;6.474395e+001
3.968847e+003;6.465771e+001
3.970776e+003;6.468680e+001
3.972704e+003;6.463670e+001
3.974633e+003;6.456833e+001
3.976561e+003;6.460851e+001
3.978490e+003;6.454262e+001
3.980418e+003;6.448501e+001
3.982347e+003;6.451611e+001
3.984275e+003;6.443894e+001
3.986204e+003;6.440641e+001
3.988132e+003;6.442723e+001
3.990061e+003;6.433518e+001
3.991989e+003;6.432568e+001
3.993918e+003;6.433858e+001
3.995846e+003;6.424590e+001
3.997775e+003;6.425225e+001
3.999703e+003;6.424381e+001
